ID,2002,2003,2004,2005,2006,2007,2008,2009,2010,2011,2012,2013,2014,2015,2016,2017,2018,2019,2020,2021
1,,1987.75,2949.45,2473.1,838.6,1852.45,879.5,1134.45,1446.35,1122.8,1319.1,1655.75,1480.9,1801.9,2162.05,1687.55,1218.95,1575.2,1839.5,1654.55
9,,2114.25,3006.4,2556.4,862.95,1899.9,775.0,1179.95,1474.45,1152.6,1339.9,1713.85,1495.5,1877.25,2225.75,1702.6,1214.05,1606.15,1879.95,1664.25
17,,2227.35,3039.75,2642.9,1005.75,1968.15,745.3,1240.4,1518.85,1193.7,1360.4,1791.05,1525.8,1962.35,2311.75,1717.0,1218.15,1649.05,1927.35,1679.9
25,,2332.4,3068.9,2755.5,1256.5,2068.45,802.75,1326.25,1586.0,1247.15,1383.45,1887.95,1574.1,2051.3,2437.25,1742.55,1232.8,1721.55,1992.2,1702.45
33,,2455.1,3096.55,2913.8,1575.35,2208.6,936.3,1446.3,1678.1,1311.0,1417.5,2004.9,1644.55,2169.85,2609.95,1784.0,1258.3,1831.9,2078.85,1732.9
41,,2613.5,3133.3,3125.4,1886.55,2391.85,1112.45,1602.4,1804.15,1380.5,1467.1,2135.45,1733.0,2337.0,2824.3,1844.5,1297.35,1978.25,2190.9,1771.4
49,,2815.0,3176.9,3398.65,2147.3,2619.4,1283.45,1802.85,1962.95,1447.15,1536.4,2283.1,1844.15,2569.1,3062.15,1930.25,1348.2,2169.7,2340.95,1822.25
57,,3052.8,3220.6,3724.8,2362.4,2881.15,1424.2,2049.9,2148.0,1514.75,1635.75,2448.65,1976.95,2822.25,3284.6,2048.8,1404.9,2412.25,2530.65,1881.3
65,,3336.45,3267.65,4067.6,2548.45,3166.05,1540.9,2345.3,2351.45,1588.75,1771.4,2624.75,2128.15,3058.35,3453.85,2207.5,1472.55,2700.65,2760.35,1941.2
73,,3664.85,3312.85,4354.6,2710.1,3455.85,1639.9,2683.75,2556.3,1670.25,1942.25,2804.95,2293.75,3266.3,3578.05,2404.35,1550.5,3024.8,3020.05,1996.6
81,,4019.45,3340.75,4576.7,2851.85,3723.4,1724.35,3044.4,2733.8,1756.0,2140.6,2975.65,2467.6,3438.3,3654.7,2621.35,1634.45,3365.7,3288.05,
89,,4367.05,3323.4,4724.4,2961.3,3910.8,1789.25,3381.9,2881.35,1831.25,2348.55,3109.9,2634.6,3548.95,3667.9,2820.6,1717.8,3680.05,3518.05,
97,,4670.65,3220.05,4801.35,3015.95,4003.05,1821.05,3639.7,2982.65,1884.1,2538.0,3175.4,2780.25,3574.55,3603.9,2962.45,1791.3,3924.0,3699.05,
105,,4866.65,3037.0,4789.1,2996.15,3973.8,1810.5,3750.05,3007.95,1895.75,2670.75,3146.3,2879.75,3494.25,3441.4,3031.6,1843.6,4054.8,3814.25,
113,,4960.1,2790.05,4682.75,2889.05,3802.9,1757.4,3730.4,2940.55,1868.15,2714.95,3023.5,2892.8,3276.15,3203.8,3016.5,1865.85,4025.05,3835.25,
121,,4944.85,2516.45,4463.35,2715.35,3505.75,1668.75,3585.75,2784.15,1807.45,2655.5,2825.4,2813.75,2978.85,2917.4,2903.9,1849.8,3833.65,3727.8,
129,,4810.7,2247.5,4158.6,2497.6,3140.0,1556.15,3328.6,2561.55,1722.7,2506.5,2584.85,2656.15,2653.8,2617.2,2717.0,1800.85,3537.05,3483.0,
137,,4551.95,1999.2,3773.2,2269.25,2754.3,1438.05,2997.7,2300.35,1624.2,2305.0,2338.05,2444.95,2347.6,2335.8,2497.5,1738.4,3188.75,3168.05,
145,,4192.95,1787.95,3329.35,2050.8,2387.9,1328.05,2641.05,2043.0,1525.85,2084.85,2110.9,2217.95,2088.3,2093.9,2277.1,1675.95,2841.85,2838.1,
153,,3781.05,1621.45,2886.65,1856.85,2068.5,1233.75,2297.8,1814.45,1432.75,1875.95,1918.0,2004.9,1885.0,1897.9,2081.95,1617.3,2531.5,2532.6,
161,,3343.8,1498.75,2482.4,1692.5,1807.4,1158.85,1994.1,1627.15,1351.75,1696.15,1766.55,1823.2,1737.8,1749.95,1921.45,1563.4,2273.35,2274.55,
169,,2934.2,1414.65,2141.05,1559.95,1602.25,1103.8,1745.75,1481.85,1286.05,1554.95,1654.7,1679.2,1638.3,1642.6,1797.55,1513.85,2071.85,2071.95,
177,,2578.85,1360.6,1871.5,1456.85,1449.85,1066.05,1556.2,1376.65,1235.6,1451.2,1576.5,1569.95,1572.2,1567.35,1703.55,1467.55,1921.2,1920.7,
185,1734.15,2289.4,1324.85,1668.9,1378.55,1342.65,1042.2,1421.8,1304.95,1196.1,1380.25,1524.65,1491.3,1527.9,1515.7,1633.8,1423.5,1814.55,1816.75,
193,1678.75,2068.35,1296.95,1520.9,1318.7,1270.15,1026.6,1333.4,1261.8,1167.65,1332.3,1487.8,1436.3,1497.7,1481.35,1579.2,1384.35,1740.4,1747.1,
201,1628.15,1907.85,1271.45,1419.45,1273.3,1223.6,1011.0,1279.35,1238.45,1148.05,1300.9,1462.2,1394.2,1471.9,1459.45,1537.4,1351.5,1688.95,1699.8,
209,1584.75,1795.7,1245.9,1354.2,1238.65,1195.0,995.95,1248.5,1228.95,1134.7,1279.2,1445.9,1358.65,1448.2,1443.5,1504.8,1325.2,1655.35,1667.75,
217,1548.65,1716.05,1222.2,1314.6,1211.45,1177.75,982.5,1231.35,1225.3,1125.25,1261.3,1434.4,1331.35,1423.75,1430.05,1480.5,1304.6,1632.25,1646.2,
225,1515.45,1659.7,1203.25,1289.7,1189.25,1166.75,970.6,1220.2,1220.85,1117.55,1245.6,1421.1,1312.5,1399.35,1415.65,1458.4,1289.8,1612.85,1628.65,
233,1485.9,1616.0,1191.0,1275.15,1172.65,1156.1,959.7,1213.05,1214.6,1108.25,1230.35,1399.4,1299.8,1373.7,1401.4,1438.4,1278.95,1595.55,1606.8,
241,1460.25,1579.6,1185.55,1268.05,1161.5,1143.35,950.8,1206.55,1207.45,1097.95,1215.4,1374.6,1292.75,1351.35,1388.75,1420.15,1271.35,1577.8,1579.7,
249,1438.8,1549.15,1187.85,1268.55,1153.8,1129.85,943.0,1201.4,1199.4,1089.4,1202.35,1350.8,1292.0,1334.6,1376.75,1403.55,1267.15,1561.1,1548.35,
257,1421.25,1523.8,1197.2,1277.9,1150.15,1116.5,936.15,1196.4,1189.1,1084.15,1192.1,1332.45,1296.8,1325.25,1365.9,1389.35,1266.55,1544.95,1517.75,
265,1407.45,1505.65,1209.65,1295.25,1154.85,1102.35,932.4,1191.65,1176.0,1081.7,1185.85,1321.65,1308.05,1323.55,1359.2,1377.15,1271.6,1532.1,1493.0,
273,1394.95,1501.8,1223.5,1321.45,1171.9,1090.85,932.1,1188.6,1164.05,1085.35,1185.75,1319.55,1323.55,1334.05,1358.45,1365.85,1283.2,1523.6,1477.15,
281,1382.5,1516.3,1235.2,1356.1,1203.95,1086.0,935.3,1188.95,1154.75,1096.9,1192.7,1324.25,1343.9,1357.6,1365.55,1355.6,1300.65,1521.15,1472.75,
289,1373.2,1557.7,1254.5,1395.0,1251.95,1088.7,941.95,1194.3,1147.7,1116.3,1207.95,1332.55,1369.95,1393.95,1378.35,1346.75,1323.7,1525.65,1479.55,
297,1367.5,1634.8,1289.8,1428.95,1313.7,1101.65,950.85,1205.45,1142.35,1142.25,1230.3,1338.0,1400.05,1445.5,1393.05,1340.15,1351.65,1534.6,1497.6,
305,1364.35,1749.8,1351.0,1442.15,1384.2,1124.9,959.7,1223.45,1133.6,1173.3,1260.95,1333.8,1432.25,1508.2,1404.25,1333.65,1381.0,1546.65,1526.1,
313,1361.35,1897.3,1443.1,1437.8,1452.35,1156.45,968.75,1247.75,1121.8,1206.55,1302.6,1333.05,1467.85,1575.5,1417.7,1324.2,1409.2,1562.15,1558.1,
321,1358.55,2064.7,1566.1,1415.9,1522.0,1190.4,976.65,1274.7,1108.9,1236.35,1354.85,1342.8,1508.3,1654.05,1440.0,1308.25,1434.25,1586.1,1590.2,
329,1368.2,2244.55,1717.35,1372.65,1590.95,1216.7,988.6,1301.85,1098.35,1257.8,1408.8,1365.25,1551.35,1742.0,1473.35,1289.9,1452.45,1620.45,1614.9,
337,1412.35,2431.25,1888.75,1300.9,1657.4,1223.15,1007.15,1332.45,1090.65,1271.45,1465.95,1396.85,1592.05,1835.65,1517.2,1272.7,1469.65,1663.4,1625.85,
345,1517.25,2607.55,2066.3,1193.95,1718.4,1199.75,1032.9,1365.65,1088.65,1280.05,1523.15,1430.85,1634.3,1933.2,1564.5,1256.6,1490.8,1705.6,1626.85,
353,1672.9,2756.05,2228.6,1058.85,1770.5,1137.25,1064.4,1398.7,1092.3,1289.3,1571.85,1458.2,1681.6,2026.8,1611.35,1241.55,1516.8,1751.1,1630.9,
361,1839.3,2866.9,2367.05,917.55,1813.45,1022.25,1097.6,1425.9,1103.55,1302.8,1612.35,1472.55,1737.15,2102.65,1655.1,1228.4,1546.3,1796.45,1645.6,
