ID,2002,2003,2004,2005,2006,2007,2008,2009,2010,2011,2012,2013,2014,2015,2016,2017,2018,2019,2020,2021
1,,996.6666667,1226.0,399.6666667,776.3333333,99.0,240.0,806.0,1061.7777778,904.5555556,790.5555556,483.6666667,1019.3333333,1193.0,1283.2222222,976.5555556,1407.5555556,758.5555556,967.4444444,1590.2222222
9,,970.2222222,1188.0,289.3333333,744.8888889,19.6666667,187.8888889,669.5555556,1045.1111111,873.4444444,655.5555556,401.4444444,937.5555556,1163.7777778,1257.5555556,839.3333333,1388.3333333,559.6666667,833.2222222,1554.0
17,,932.6666667,1141.1111111,223.2222222,767.8888889,-27.2222222,189.3333333,551.2222222,1035.4444444,830.3333333,533.6666667,360.0,868.3333333,1134.4444444,1247.4444444,741.3333333,1376.0,398.3333333,767.2222222,1525.0
25,,890.2222222,1108.3333333,205.6666667,846.8888889,-33.6666667,246.7777778,475.3333333,1033.7777778,780.7777778,448.2222222,362.2222222,817.6666667,1120.4444444,1252.5555556,701.4444444,1375.5555556,284.7777778,780.7777778,1507.1111111
33,,874.2222222,1097.1111111,238.5555556,972.5555556,6.0,357.5555556,455.5555556,1047.3333333,737.6666667,414.2222222,413.5555556,806.1111111,1122.0,1267.1111111,729.7777778,1391.7777778,225.4444444,875.0,1501.1111111
41,,900.1111111,1116.2222222,326.1111111,1121.1111111,95.3333333,517.8888889,496.1111111,1094.5555556,730.4444444,439.5555556,514.4444444,842.0,1136.8888889,1296.6666667,827.0,1427.5555556,228.4444444,1039.5555556,1505.0
49,,971.8888889,1166.3333333,469.1111111,1261.3333333,234.8888889,715.8888889,596.2222222,1177.8888889,773.6666667,525.6666667,660.8888889,923.1111111,1166.5555556,1344.8888889,981.4444444,1480.5555556,299.7777778,1252.7777778,1516.2222222
57,,1069.7777778,1229.2222222,663.7777778,1384.0,422.2222222,928.0,744.3333333,1281.0,865.2222222,666.8888889,846.0,1038.4444444,1225.8888889,1414.2222222,1165.0,1552.3333333,442.0,1474.5555556,1533.7777778
65,,1173.2222222,1297.2222222,896.8888889,1488.1111111,646.2222222,1119.4444444,916.2222222,1391.2222222,989.8888889,849.0,1053.8888889,1166.1111111,1315.6666667,1506.7777778,1349.6666667,1645.3333333,654.7777778,1689.2222222,1556.1111111
73,,1272.4444444,1365.1111111,1136.7777778,1577.1111111,886.8888889,1285.4444444,1081.3333333,1500.6666667,1117.7777778,1045.6666667,1253.5555556,1300.8888889,1421.2222222,1620.2222222,1509.5555556,1759.1111111,924.8888889,1893.6666667,1581.0
81,,1367.0,1429.2222222,1349.3333333,1653.8888889,1111.0,1429.1111111,1230.4444444,1610.1111111,1244.2222222,1231.1111111,1425.6666667,1435.4444444,1539.3333333,1751.3333333,1654.2222222,1889.4444444,1228.3333333,2090.2222222,
89,,1455.7777778,1488.8888889,1528.8888889,1718.7777778,1301.2222222,1551.8888889,1365.1111111,1718.6666667,1367.2222222,1398.0,1576.3333333,1570.5555556,1665.2222222,1894.3333333,1790.1111111,2028.3333333,1530.2222222,2279.3333333,
97,,1535.0,1541.0,1675.8888889,1771.1111111,1460.3333333,1656.2222222,1489.4444444,1822.1111111,1484.4444444,1548.1111111,1710.4444444,1709.0,1793.8888889,2037.3333333,1924.4444444,2166.1111111,1822.3333333,2457.7777778,
105,,1597.4444444,1583.0,1785.8888889,1809.8888889,1589.7777778,1740.8888889,1606.3333333,1913.4444444,1595.8888889,1682.4444444,1832.4444444,1848.3333333,1920.1111111,2170.4444444,2058.4444444,2293.7777778,2093.1111111,2620.8888889,
113,,1644.4444444,1614.8888889,1871.0,1833.2222222,1695.4444444,1807.2222222,1715.8888889,1991.6666667,1699.5555556,1802.8888889,1943.5555556,1982.8888889,2036.0,2293.2222222,2190.5555556,2406.0,2338.7777778,2765.1111111,
121,,1676.8888889,1637.6666667,1937.6666667,1837.8888889,1782.4444444,1852.7777778,1816.1111111,2061.7777778,1792.5555556,1910.3333333,2040.1111111,2102.3333333,2135.2222222,2405.1111111,2315.2222222,2493.8888889,2551.2222222,2887.3333333,
129,,1694.0,1653.6666667,1988.8888889,1822.6666667,1852.7777778,1875.7777778,1901.3333333,2126.3333333,1871.4444444,2004.3333333,2118.2222222,2201.6666667,2213.7777778,2500.5555556,2425.8888889,2555.0,2728.7777778,2984.5555556,
137,,1700.3333333,1664.1111111,2025.7777778,1797.1111111,1907.5555556,1876.2222222,1968.4444444,2187.4444444,1931.5555556,2085.4444444,2181.2222222,2275.4444444,2276.5555556,2577.8888889,2514.4444444,2589.7777778,2868.2222222,3057.1111111,
145,,1701.1111111,1669.3333333,2049.5555556,1768.5555556,1948.1111111,1863.3333333,2014.5555556,2246.1111111,1971.1111111,2151.6666667,2227.3333333,2317.3333333,2324.6666667,2638.4444444,2580.8888889,2603.3333333,2963.5555556,3111.7777778,
153,,1698.4444444,1668.2222222,2062.7777778,1741.5555556,1975.1111111,1841.7777778,2041.1111111,2299.0,1993.0,2198.6666667,2254.1111111,2335.3333333,2362.0,2682.3333333,2625.0,2598.3333333,3009.7777778,3154.1111111,
161,,1694.6666667,1662.0,2066.0,1718.3333333,1993.3333333,1816.6666667,2048.1111111,2340.1111111,1997.7777778,2223.6666667,2256.2222222,2338.5555556,2392.1111111,2707.2222222,2645.1111111,2580.2222222,3019.1111111,3187.2222222,
169,,1689.3333333,1651.3333333,2059.6666667,1700.4444444,2006.1111111,1793.1111111,2040.6666667,2362.8888889,1991.7777778,2231.3333333,2244.4444444,2331.4444444,2416.5555556,2716.5555556,2648.0,2551.7777778,2999.2222222,3211.1111111,
177,,1680.7777778,1637.4444444,2043.0,1688.2222222,2017.1111111,1772.4444444,2023.3333333,2355.4444444,1977.5555556,2223.4444444,2222.6666667,2313.4444444,2437.3333333,2709.1111111,2635.6666667,2518.0,2960.7777778,3224.2222222,
185,1652.4444444,1669.1111111,1622.3333333,2016.5555556,1680.4444444,2025.5555556,1756.8888889,2001.1111111,2298.8888889,1954.4444444,2204.7777778,2196.3333333,2286.1111111,2453.7777778,2689.3333333,2609.8888889,2481.4444444,2914.1111111,3220.2222222,
193,1624.6666667,1657.8888889,1606.5555556,1981.6666667,1675.7777778,2030.8888889,1745.7777778,1976.6666667,2217.8888889,1922.7777778,2180.6666667,2168.2222222,2254.5555556,2469.1111111,2661.2222222,2576.6666667,2445.7777778,2868.2222222,3198.1111111,
201,1595.8888889,1649.6666667,1591.3333333,1940.4444444,1671.2222222,2030.3333333,1738.4444444,1951.2222222,2129.2222222,1888.4444444,2151.0,2140.4444444,2219.5555556,2482.8888889,2625.1111111,2540.6666667,2412.5555556,2829.5555556,3160.2222222,
209,1565.7777778,1645.0,1576.0,1895.5555556,1665.3333333,2019.8888889,1733.0,1924.8888889,2042.6666667,1853.7777778,2119.5555556,2110.0,2182.0,2486.7777778,2589.0,2503.8888889,2379.6666667,2798.6666667,3107.6666667,
217,1534.5555556,1641.4444444,1561.1111111,1851.1111111,1655.0,1998.2222222,1729.3333333,1896.7777778,1962.5555556,1819.2222222,2087.0,2074.5555556,2139.1111111,2470.8888889,2554.6666667,2469.1111111,2346.0,2775.6666667,3038.2222222,
225,1502.6666667,1638.2222222,1543.5555556,1808.5555556,1637.6666667,1962.5555556,1726.6666667,1866.0,1887.1111111,1786.0,2053.8888889,2032.6666667,2092.6666667,2436.7777778,2521.4444444,2434.3333333,2312.7777778,2757.0,2958.2222222,
233,1469.3333333,1632.4444444,1520.6666667,1768.0,1614.6666667,1911.2222222,1724.6666667,1829.8888889,1817.3333333,1752.4444444,2020.3333333,1986.1111111,2045.3333333,2385.3333333,2487.0,2396.2222222,2282.4444444,2742.3333333,2871.8888889,
241,1432.3333333,1621.4444444,1494.1111111,1728.2222222,1587.1111111,1846.0,1720.7777778,1786.8888889,1753.8888889,1717.3333333,1985.2222222,1937.0,1997.7777778,2322.3333333,2446.8888889,2359.0,2254.3333333,2727.7777778,2781.7777778,
249,1391.7777778,1602.2222222,1465.4444444,1686.0,1558.4444444,1772.5555556,1711.6666667,1736.0,1693.8888889,1678.3333333,1946.4444444,1887.8888889,1951.5555556,2250.8888889,2402.8888889,2321.4444444,2227.6666667,2708.7777778,2685.5555556,
257,1351.1111111,1573.5555556,1436.2222222,1638.3333333,1529.4444444,1694.8888889,1693.1111111,1680.4444444,1633.5555556,1634.6666667,1903.8888889,1838.5555556,1906.1111111,2176.1111111,2352.2222222,2279.6666667,2200.8888889,2680.8888889,2586.8888889,
265,1312.0,1536.2222222,1408.3333333,1586.4444444,1501.6666667,1616.1111111,1665.0,1624.1111111,1565.0,1589.2222222,1856.4444444,1790.6666667,1859.4444444,2098.2222222,2294.0,2229.3333333,2169.3333333,2636.4444444,2486.6666667,
273,1276.4444444,1494.1111111,1382.6666667,1531.6666667,1474.4444444,1539.5555556,1627.3333333,1569.0,1491.6666667,1542.5555556,1802.0,1741.5555556,1811.2222222,2018.1111111,2224.1111111,2168.1111111,2131.2222222,2565.8888889,2384.2222222,
281,1244.7777778,1449.7777778,1360.0,1476.7777778,1444.6666667,1466.4444444,1578.1111111,1514.8888889,1417.0,1495.5555556,1742.5555556,1691.5555556,1761.5555556,1936.7777778,2143.8888889,2099.6666667,2084.5555556,2476.4444444,2279.4444444,
289,1217.0,1405.4444444,1340.8888889,1423.7777778,1409.5555556,1396.2222222,1522.1111111,1462.4444444,1345.4444444,1448.0,1681.3333333,1640.8888889,1709.8888889,1856.6666667,2052.1111111,2025.1111111,2028.3333333,2373.7777778,2174.4444444,
297,1191.6666667,1363.5555556,1322.3333333,1372.6666667,1364.2222222,1327.6666667,1462.7777778,1413.0,1277.6666667,1395.5555556,1619.4444444,1590.1111111,1654.3333333,1780.3333333,1954.6666667,1944.7777778,1964.7777778,2263.0,2071.7777778,
305,1167.4444444,1326.1111111,1301.3333333,1323.6666667,1302.5555556,1256.7777778,1403.5555556,1365.7777778,1213.8888889,1338.4444444,1551.6666667,1538.8888889,1590.7777778,1705.4444444,1857.7777778,1860.3333333,1897.0,2147.1111111,1974.2222222,
313,1145.4444444,1294.1111111,1271.7777778,1274.7777778,1217.1111111,1179.7777778,1346.4444444,1319.0,1156.2222222,1280.3333333,1472.2222222,1488.4444444,1523.6666667,1630.2222222,1764.1111111,1778.2222222,1827.4444444,2030.4444444,1889.4444444,
321,1125.8888889,1271.6666667,1224.7777778,1224.1111111,1100.0,1088.4444444,1291.5555556,1272.5555556,1103.3333333,1224.6666667,1376.4444444,1437.7777778,1457.7777778,1557.2222222,1674.8888889,1701.4444444,1751.3333333,1912.1111111,1819.8888889,
329,1108.0,1261.0,1149.2222222,1168.4444444,939.5555556,973.5555556,1235.2222222,1228.3333333,1056.6666667,1171.2222222,1255.3333333,1386.2222222,1396.8888889,1490.5555556,1588.0,1630.5555556,1658.5555556,1788.8888889,1768.5555556,
337,1090.7777778,1256.6666667,1042.3333333,1105.5555556,742.1111111,827.2222222,1174.8888889,1185.6666667,1016.5555556,1118.5555556,1104.4444444,1329.4444444,1342.6666667,1432.8888889,1495.6666667,1566.3333333,1539.2222222,1655.3333333,1728.5555556,
345,1070.0,1256.8888889,899.8888889,1032.8888889,542.6666667,653.4444444,1106.3333333,1147.2222222,982.7777778,1061.1111111,929.7777778,1263.7777778,1296.2222222,1386.1111111,1389.3333333,1511.8888889,1388.0,1504.6666667,1696.2222222,
353,1046.0,1257.4444444,724.0,946.6666667,362.6666667,484.0,1024.8888889,1113.4444444,954.3333333,993.0,756.6666667,1189.5555556,1257.6666667,1348.2222222,1268.4444444,1467.3333333,1198.0,1334.3333333,1665.7777778,
361,1021.0,1251.5555556,549.1111111,850.7777778,213.2222222,341.7777778,926.1111111,1085.0,930.0,905.4444444,604.0,1107.1111111,1224.0,1313.8888889,1130.0,1433.7777778,979.8888889,1147.0,1629.2222222,
