ID,2002,2003,2004,2005,2006,2007,2008,2009,2010,2011,2012,2013,2014,2015,2016,2017,2018,2019,2020,2021
1,,1427.664519,1695.370921,1592.591457,996.14259,1660.089898,853.943983,1025.474434,1895.13677,1033.738828,975.845666,942.131262,1139.262212,1211.233112,1938.469861,1343.149969,1174.729474,1120.031075,1709.457181,1095.490543
9,,1451.593328,1698.268032,1613.65662,910.647994,1708.829349,711.310227,1034.984411,1934.917377,1042.829661,977.894097,943.969757,1120.126169,1247.315631,1958.465184,1396.673665,1171.088755,1122.797755,1714.776866,1182.298587
17,,1466.297339,1702.248493,1648.106735,908.993141,1791.615153,680.728643,1059.281542,1973.988984,1067.206298,986.630534,945.728954,1102.641862,1305.671482,1996.160258,1436.714301,1172.0926,1127.624195,1732.93068,1259.533153
25,,1464.034712,1721.610476,1701.955726,991.709104,1920.267928,772.510393,1108.579297,2013.893473,1109.710975,995.520578,953.310642,1097.817086,1398.030763,2043.641966,1433.378092,1191.251195,1144.141135,1780.066722,1334.676782
33,,1474.787051,1765.819996,1797.410621,1141.631677,2096.834234,956.473602,1185.357514,2077.272812,1163.553627,1000.007587,969.654438,1148.467782,1518.800353,2107.789857,1423.981293,1239.233631,1183.428185,1863.798171,1410.455726
41,,1516.479942,1831.453752,1948.767304,1318.423716,2306.017356,1139.95583,1289.720536,2209.091457,1228.464249,999.516005,995.641447,1221.072854,1648.412076,2202.472251,1431.401476,1325.324153,1252.685305,1991.602473,1481.451465
49,,1606.94232,1911.811993,2163.869674,1522.808148,2520.345458,1276.197464,1431.358865,2418.921638,1300.118686,986.784452,1033.269071,1297.037414,1748.138848,2324.599252,1470.841093,1449.194658,1372.902723,2164.286011,1540.560902
57,,1753.638641,2006.871129,2422.31324,1745.712326,2709.181667,1363.345043,1609.782893,2682.551237,1373.988672,975.535024,1085.497818,1377.498649,1846.964664,2444.382145,1551.044793,1588.386094,1555.004885,2363.066722,1579.613906
65,,1964.993245,2125.454064,2674.220848,1983.629703,2854.642694,1402.634691,1823.212222,2949.389316,1440.201206,975.722927,1151.155997,1466.062149,1961.757015,2525.676159,1679.446061,1705.677302,1793.255768,2572.211183,1602.736541
73,,2224.426626,2264.443671,2806.025566,2212.127208,2941.570048,1403.190501,2050.403762,3154.690397,1483.544274,990.748805,1234.155165,1556.169507,2089.732176,2568.921534,1853.403243,1745.451154,2067.196529,2762.999688,1608.897734
81,,2498.727292,2411.446685,2846.998337,2403.792871,2938.521097,1378.327687,2253.400333,3209.332987,1488.42486,1020.42143,1342.936604,1631.911037,2214.436292,2578.995635,2053.626273,1686.087404,2338.123467,2901.744232,
89,,2711.315215,2541.939825,2797.287051,2509.02037,2805.233735,1340.047287,2426.614217,3122.311993,1437.518187,1060.52962,1481.897215,1674.06059,2299.643006,2547.577635,2235.915194,1551.358449,2532.62222,2931.588859,
97,,2842.434317,2605.22989,2644.13625,2499.081064,2555.851694,1295.175951,2554.236957,2904.387965,1346.16244,1108.21191,1641.511016,1672.345874,2314.40636,2465.553627,2331.707026,1397.95635,2604.194554,2774.941904,
105,,2843.936188,2564.579401,2421.088235,2390.190189,2265.361879,1245.054874,2593.618894,2586.711494,1241.275826,1165.476824,1803.742465,1626.122532,2247.028892,2324.459884,2306.479526,1256.234047,2548.558927,2529.121285,
113,,2743.329245,2406.503118,2178.790168,2198.970069,1979.971004,1194.539493,2543.209832,2256.329869,1145.365309,1231.036479,1932.85793,1545.299002,2103.90106,2155.635835,2199.999273,1143.913947,2413.340678,2229.615049,
121,,2597.054666,2192.837664,1954.529204,1998.17751,1736.1693,1142.279152,2409.784141,1945.004677,1065.04365,1296.587924,2006.893785,1443.509873,1934.145188,1992.933382,2057.937019,1061.658907,2257.260861,1950.07909,
129,,2447.493868,1969.852214,1766.6164,1818.657036,1553.422054,1099.236333,2197.844107,1699.967782,998.963729,1343.681355,2003.670858,1344.103201,1779.482436,1853.514862,1923.535544,1002.441176,2122.490646,1728.285492,
137,,2317.376429,1763.446165,1621.507899,1679.033257,1428.861255,1070.298794,1970.009873,1529.131366,948.545417,1357.822906,1911.801704,1252.910621,1659.354292,1749.091353,1812.748805,960.66296,2028.173249,1575.569736,
145,,2214.231553,1599.520058,1516.257743,1576.439306,1350.297339,1053.969653,1776.328206,1421.959884,914.613802,1337.362087,1778.766473,1175.486801,1576.575452,1677.572646,1728.600187,935.269591,1968.301912,1481.77884,
153,,2139.675223,1481.484411,1444.359904,1504.347017,1300.99709,1048.285388,1632.500831,1359.265849,894.627728,1292.395032,1628.977448,1113.217626,1523.70079,1627.890979,1665.858657,923.218146,1923.866972,1431.892954,
161,,2081.567969,1402.361879,1397.341613,1448.934837,1264.992309,1048.861983,1532.971939,1322.76138,885.00873,1234.827583,1490.043546,1062.538142,1485.943775,1587.708273,1615.963313,918.833403,1877.31428,1405.120661,
169,,2021.326024,1354.022033,1363.849512,1406.578362,1236.216587,1053.527645,1465.892434,1300.422469,880.151632,1172.497921,1373.793806,1024.048639,1448.851278,1549.36032,1572.100395,918.440241,1822.491998,1380.887445,
177,,1957.972251,1327.43255,1335.806277,1369.792455,1212.091769,1058.347641,1417.212742,1286.824257,878.382353,1116.336417,1286.298379,995.592912,1406.451881,1506.693203,1531.579817,917.664623,1761.856371,1357.412908,
185,1637.076076,1892.754313,1313.811993,1310.002182,1340.718562,1191.776034,1059.038661,1374.532634,1277.607046,875.850551,1070.892434,1225.744856,975.613386,1363.832675,1458.00582,1492.783517,916.902619,1695.382769,1334.65766,
193,1590.860112,1831.965392,1305.402619,1289.568177,1318.400229,1173.820308,1051.738724,1337.620557,1269.833195,873.881002,1036.954168,1184.95344,963.021721,1324.924028,1412.961546,1454.768239,914.653814,1627.898254,1310.974122,
201,1542.860944,1776.67803,1297.061422,1275.958844,1300.269383,1158.44419,1035.89181,1305.573685,1256.869362,871.262523,1013.04022,1158.603721,955.137809,1291.003326,1376.01455,1417.237788,911.893369,1565.490439,1290.184993,
209,1499.650904,1732.25608,1287.99709,1269.003118,1280.627312,1145.849512,1012.062669,1280.356787,1241.763355,869.615465,997.279256,1142.681875,949.617959,1261.998649,1346.626169,1384.851278,907.761588,1514.525255,1276.948555,
217,1463.682291,1697.920703,1280.273228,1265.948451,1262.215236,1135.629495,985.603825,1261.656412,1224.808252,869.062565,985.916649,1133.290376,944.42091,1237.228019,1324.516836,1358.333195,905.04656,1475.914779,1272.806485,
225,1435.852006,1668.304303,1274.656205,1262.291519,1246.267096,1127.500935,961.833714,1246.784141,1208.181459,870.644149,976.222823,1127.23862,938.157244,1216.188215,1306.209,1337.082831,903.966119,1447.702245,1273.213053,
233,1415.092289,1639.170027,1271.345666,1255.912492,1234.070983,1120.876429,941.986489,1233.04604,1193.471108,872.708273,966.524943,1119.454791,930.930368,1198.640719,1291.695386,1319.356267,905.407711,1426.280191,1269.573062,
241,1399.174496,1612.66005,1272.710455,1247.965496,1224.033257,1115.306589,925.6111,1219.31719,1182.11401,873.977655,957.515693,1110.055498,923.67512,1183.213157,1277.680524,1301.113178,907.355435,1407.430056,1262.417896,
249,1386.482124,1590.079194,1280.134172,1239.899813,1214.980981,1109.04708,909.970276,1204.588963,1171.221991,871.467263,949.34338,1097.390355,917.591249,1171.09364,1263.753482,1283.389108,911.067554,1390.898982,1252.183434,
257,1374.797651,1576.217418,1296.252962,1232.150696,1203.675016,1100.272604,896.109748,1186.651632,1156.271461,867.041364,944.204427,1080.151528,911.710351,1164.356059,1249.999169,1263.902099,916.740698,1376.544585,1238.895552,
265,1366.493453,1570.876845,1320.576491,1224.639992,1189.426315,1087.361879,884.896279,1164.301185,1137.408231,862.091561,943.638641,1062.068697,908.46508,1166.979734,1237.492933,1243.571919,926.373935,1368.038973,1227.945438,
273,1362.746414,1569.38599,1348.618582,1218.561837,1171.740802,1070.978903,877.717834,1140.053211,1118.872999,862.251091,947.91561,1048.751091,909.359281,1179.63968,1225.317502,1224.952089,938.165974,1366.363438,1219.842029,
281,1368.184577,1565.722407,1367.620453,1216.071191,1158.296508,1052.744128,874.592289,1114.8492,1104.646331,869.866868,956.813448,1042.894928,913.475681,1203.080752,1218.705259,1214.111827,949.768759,1372.0,1216.088131,
289,1385.958325,1565.409894,1373.930888,1216.059863,1151.813137,1036.468406,874.036063,1090.475785,1096.651424,886.34525,968.321347,1045.260757,917.81906,1233.367075,1216.705882,1211.40927,955.446477,1382.084598,1214.463417,
297,1414.951361,1575.006859,1367.169715,1220.240491,1158.306589,1025.729474,874.891187,1074.161089,1091.737373,911.570464,977.173768,1053.607566,928.195801,1288.8492,1218.328726,1219.19736,963.345458,1393.41031,1217.941488,
305,1446.270318,1592.362087,1355.901788,1227.114425,1179.487736,1022.623571,878.024423,1078.585117,1084.271461,945.264602,974.420806,1062.886614,945.328206,1376.976824,1218.727603,1228.532218,976.347017,1407.657763,1222.764186,
313,1464.237165,1608.781646,1352.97433,1233.060798,1219.657036,1031.674184,885.901995,1115.093432,1073.493556,983.295261,970.865724,1076.315111,971.050197,1493.613802,1222.575244,1221.619414,991.776242,1434.27884,1224.222823,
321,1452.609437,1621.185928,1364.177198,1234.017564,1275.644565,1059.648098,898.409478,1189.361255,1059.580545,1014.259509,968.931199,1094.120973,1007.697984,1630.179173,1231.547703,1205.205051,1011.184265,1477.645084,1217.612139,
329,1412.986385,1632.40158,1398.627105,1226.336624,1347.312929,1099.220432,916.578986,1304.418104,1045.692372,1027.436084,965.062149,1116.712014,1051.406984,1758.468094,1240.203284,1189.907296,1034.003949,1537.462794,1195.887861,
337,1364.243608,1645.471628,1453.437123,1209.324361,1430.464456,1142.722927,938.321347,1450.546664,1035.057888,1025.980046,962.972875,1139.893473,1096.212638,1861.669403,1242.05872,1180.397734,1057.087716,1604.427874,1142.461235,
345,1359.897111,1660.191852,1512.641031,1183.223966,1514.400644,1170.231241,965.849096,1605.243712,1031.068593,1012.507483,961.882041,1157.639368,1137.516629,1912.771877,1249.575348,1176.982228,1078.699855,1655.106007,1065.624922,
353,1372.370401,1674.811682,1554.463417,1143.29682,1583.807732,1141.650696,995.755456,1745.791416,1030.288506,995.079505,955.533049,1164.503118,1168.534504,1927.08678,1264.298587,1171.079194,1099.401891,1686.87539,1009.134587,
361,1400.381833,1686.816774,1578.45978,1082.35107,1623.451777,1031.757327,1019.459988,1837.544793,1031.580545,981.396487,947.315007,1156.542715,1189.315943,1930.78227,1295.794429,1170.663687,1113.356267,1703.180108,1009.515381,
