ID,2002,2003,2004,2005,2006,2007,2008,2009,2010,2011,2012,2013,2014,2015,2016,2017,2018,2019,2020,2021
1,,2406.376014,2455.368594,1090.786713,1882.023641,1329.984642,1528.673339,2158.382744,2356.486626,2233.62019,2210.530112,1898.421915,2318.656428,2394.417601,2724.176877,2140.051941,2515.218464,2041.328387,2085.858499,2666.086109
9,,2347.574288,2383.875755,833.995168,1748.163934,1346.230198,1244.969802,1960.798274,2285.198447,2158.692321,1938.229163,1779.348231,2197.864884,2325.773253,2624.742019,1866.208973,2465.601898,1800.052459,1856.638481,2630.564797
17,,2277.293184,2253.597066,651.320276,1768.168076,1389.891286,1080.89629,1739.86264,2146.779638,1986.542882,1606.928732,1665.099741,2065.126316,2223.883003,2515.035375,1550.570147,2407.587921,1580.05453,1739.893701,2603.814668
25,,2192.595341,2149.059362,536.763072,1935.774461,1406.655047,1053.866091,1569.153581,1918.49094,1732.755651,1347.206903,1530.732873,1887.994478,2123.239689,2425.37377,1328.838309,2348.625539,1357.01484,1746.632097,2589.638309
33,,2123.545815,2094.350647,508.270751,2128.369111,1330.838999,1157.920966,1472.36428,1720.376014,1445.760656,1196.045557,1413.100259,1687.594478,2020.010526,2362.816393,1285.487662,2307.625367,1165.340811,1847.232442,2593.222261
41,,2071.326661,2105.675065,587.26799,2248.553926,1191.334254,1380.860397,1482.970319,1673.960311,1278.00604,1170.448663,1382.814668,1593.664538,1921.814495,2348.496462,1421.898533,2315.044003,1039.127179,1999.64918,2600.20742
49,,2046.234167,2144.635203,773.834167,2326.085418,1158.222951,1650.242105,1601.114064,1778.695427,1277.367558,1260.002416,1430.782053,1618.665056,1858.128904,2378.672649,1641.066091,2376.512683,1007.085246,2163.285073,2611.458844
57,,2083.547541,2188.230026,1041.284901,2385.884038,1259.341846,1890.176186,1774.227092,1920.500604,1422.791199,1442.592925,1566.503365,1710.499223,1899.260569,2421.12994,1866.953581,2440.093529,1097.353063,2291.187575,2617.514754
65,,2163.859016,2220.943054,1310.91717,2449.742709,1477.633477,2063.529249,1937.345815,2056.222088,1663.140293,1656.614668,1784.127524,1856.832959,2054.237101,2479.35962,2073.018809,2481.239517,1300.149957,2412.260397,2628.729077
73,,2262.133046,2255.261605,1594.511993,2511.215876,1764.500431,2193.298533,2098.781536,2197.40742,1890.166005,1907.256083,2012.292494,2010.117343,2243.456601,2518.254875,2253.698188,2549.849525,1603.710958,2544.112856,2643.807075
81,,2342.90906,2297.234858,1821.983434,2570.590509,2045.142019,2298.816739,2248.741329,2336.574806,2089.532701,2146.184469,2204.107161,2177.187403,2411.002588,2571.466091,2401.74616,2649.457118,1958.711303,2680.043658,
89,,2403.03365,2346.669198,2004.758067,2623.720794,2274.40604,2401.339431,2380.817947,2472.139603,2263.369629,2344.39258,2374.008456,2353.536497,2523.55151,2648.011562,2518.140293,2759.21277,2286.745988,2834.381191,
97,,2450.359275,2396.69767,2169.829336,2685.553581,2463.134426,2497.851769,2486.077481,2600.653149,2404.377912,2510.245384,2528.256255,2534.838999,2609.962381,2746.277135,2632.698878,2878.628128,2586.325453,3009.359275,
105,,2500.494909,2431.518378,2317.997757,2737.97377,2628.268335,2557.947886,2586.477998,2715.27006,2508.976877,2645.787921,2657.625712,2716.899569,2697.304918,2855.729767,2769.832269,2990.16497,2838.426747,3169.473339,
113,,2538.935979,2425.843658,2452.108887,2739.180328,2763.881967,2610.778775,2658.655738,2779.92994,2602.300086,2732.679379,2766.219154,2894.046592,2802.231752,2971.095255,2924.350302,3075.515789,3037.498016,3300.690078,
121,,2575.983779,2416.973253,2555.809836,2730.754271,2867.996376,2662.236238,2730.312511,2813.971182,2698.848663,2809.415186,2853.425367,3058.217774,2917.227437,3077.458154,3059.832614,3133.16635,3199.019327,3391.744607,
129,,2612.509577,2415.71113,2653.609146,2724.568421,2935.439862,2699.051251,2806.045902,2817.902847,2788.627437,2884.850216,2920.65384,3181.147886,2999.142364,3153.507852,3129.118033,3148.522692,3304.82088,3456.068507,
137,,2647.383434,2419.011562,2752.928904,2716.858844,2972.961001,2718.783261,2888.200345,2816.415703,2860.545815,2941.483175,2958.591544,3243.573253,3054.877998,3193.374116,3147.583261,3122.693184,3375.405522,3514.225884,
145,,2668.476445,2423.359275,2844.24711,2695.036928,2972.148059,2717.749094,2963.673857,2815.896635,2892.41277,2978.522347,2983.028645,3238.375496,3085.665919,3191.752718,3141.76428,3081.274029,3404.915272,3568.526143,
153,,2685.220362,2425.934599,2910.44245,2668.911303,2958.007938,2700.413115,3021.614495,2812.415531,2888.306126,3011.995341,3000.713201,3212.175324,3101.813978,3176.635375,3124.275928,3040.054702,3401.161691,3603.099914,
161,,2702.424676,2391.547023,2935.914754,2636.47541,2943.450561,2668.061087,3026.323555,2793.311993,2844.622951,3028.85522,3014.03503,3175.431924,3098.080759,3155.255738,3092.547368,2996.286454,3383.862295,3592.871959,
169,,2720.417774,2354.943917,2941.312683,2609.357722,2937.132183,2633.421915,2990.762554,2759.422088,2795.802588,3024.998274,3023.081104,3135.34616,3081.272649,3136.728732,3067.16635,2948.389819,3354.707161,3567.086109,
177,,2739.971009,2329.384297,2940.557032,2586.781191,2928.146506,2595.316825,2942.852459,2707.265574,2758.093356,2989.610871,3032.325971,3095.010871,3037.73805,3119.710613,3052.652459,2892.996376,3322.941501,3556.001035,
185,2608.227783,2745.021053,2325.931838,2930.913028,2573.314582,2910.450561,2570.295082,2882.508887,2670.126316,2731.850216,2944.637791,3030.756169,3051.337705,2998.137187,3114.277653,3037.475582,2838.591544,3290.274029,3543.767558,
193,2508.102675,2722.186885,2340.210526,2889.1239,2577.081104,2888.481277,2561.529594,2830.273857,2660.116652,2713.452977,2892.630544,3024.820535,2983.384642,2966.459879,3117.036238,3008.701984,2787.68214,3263.924245,3504.678171,
201,2431.029163,2697.898533,2352.183434,2841.955824,2594.506644,2864.616393,2556.343054,2789.585332,2673.85522,2704.168248,2851.945815,3027.694219,2922.522519,2937.608973,3133.134254,2969.016739,2737.271441,3242.913891,3452.116997,
209,2388.579638,2680.59189,2362.432614,2803.110095,2610.215013,2826.749784,2543.330802,2760.684211,2695.908714,2685.71855,2827.835375,3029.861605,2875.073512,2898.561173,3152.694737,2934.601898,2687.246247,3203.525971,3412.645211,
217,2361.548059,2662.373425,2351.359103,2769.962899,2613.482485,2772.431579,2530.558067,2740.202416,2691.212252,2675.0,2814.714409,3001.46195,2838.49629,2858.344953,3152.448318,2904.498533,2640.981363,3160.899569,3385.718896,
225,2343.807248,2628.641588,2314.998447,2738.018464,2593.888007,2711.245211,2503.625367,2717.501122,2667.812252,2675.190854,2787.374978,2944.058326,2814.676618,2816.166523,3070.754271,2860.947714,2593.192235,3118.722865,3364.688352,
233,2334.906471,2594.231924,2274.852977,2706.845039,2563.177739,2652.888525,2484.179983,2699.68887,2637.346851,2680.181881,2755.423641,2882.252286,2790.232959,2771.681795,2970.633305,2815.272476,2554.423814,3079.723382,3332.199655,
241,2328.048145,2565.094909,2234.178085,2675.173598,2524.442105,2597.805695,2474.241415,2670.35082,2608.120966,2687.677135,2723.351165,2826.215186,2747.894392,2732.425539,2875.823641,2755.418637,2526.011734,3041.991544,3262.178085,
249,2323.756859,2534.086799,2206.907334,2647.118723,2491.135462,2551.032269,2462.922692,2632.978775,2571.042968,2681.616393,2691.137015,2771.468852,2694.801381,2698.260224,2790.453149,2698.953063,2514.404314,3008.046247,3178.913719,
257,2319.597757,2496.447455,2193.371872,2609.961519,2468.338395,2511.204487,2415.356687,2596.770147,2530.408456,2645.969284,2660.233305,2718.339085,2644.449525,2665.800173,2709.961173,2637.229336,2513.369111,2955.84176,3095.99189,
265,2317.73667,2460.346333,2190.645211,2572.790682,2462.122347,2471.586713,2367.747196,2566.399482,2487.384469,2607.991199,2633.644521,2673.423641,2612.108542,2634.168939,2641.95082,2581.008801,2521.289733,2914.810526,3015.208628,
273,2318.101984,2427.768076,2193.133909,2536.815013,2471.104573,2434.368766,2327.865574,2533.493356,2442.290768,2582.13805,2613.232269,2636.853494,2599.721829,2612.641415,2571.311648,2537.445729,2514.872994,2896.412079,2945.074374,
281,2332.018637,2402.171182,2198.628818,2503.83365,2495.125971,2405.854702,2302.427783,2504.04918,2404.894219,2570.966868,2598.140293,2611.803969,2615.083003,2609.743917,2514.98585,2514.051424,2508.713891,2901.603969,2885.687834,
289,2357.589301,2386.540121,2205.498361,2474.093011,2520.25591,2383.566005,2287.43434,2467.545643,2375.918205,2566.694392,2579.278343,2600.714236,2648.52528,2627.446764,2474.671613,2498.498361,2510.479034,2927.260569,2840.793443,
297,2390.215013,2387.368076,2211.702502,2455.623641,2545.27541,2368.591372,2282.53874,2436.40742,2351.608973,2566.911648,2565.592235,2613.292666,2677.089215,2658.224331,2456.105091,2497.780673,2528.889905,2953.633477,2808.238999,
305,2424.475928,2405.75824,2219.526488,2450.087834,2549.749957,2358.083003,2283.010699,2409.694564,2323.131493,2562.616566,2561.260052,2633.604314,2644.413805,2689.122002,2451.583434,2511.178947,2559.925626,2941.206385,2793.827265,
313,2455.784987,2437.629163,2228.013115,2458.084211,2527.783434,2355.412425,2288.749267,2394.797929,2295.369456,2549.318033,2562.73063,2648.54409,2601.786368,2695.75151,2462.942364,2541.922174,2591.217774,2916.228818,2808.581191,
321,2481.37912,2461.86195,2228.703192,2459.22761,2424.051251,2357.450216,2293.773425,2393.544435,2269.827092,2521.299569,2557.158067,2643.806557,2564.198274,2691.624159,2483.128041,2570.814323,2604.646592,2893.919241,2833.22088,
329,2510.26333,2479.407075,2215.273167,2444.222606,2227.27679,2352.446937,2304.962554,2405.36635,2251.710267,2495.846419,2523.883693,2627.529422,2543.460052,2692.733218,2496.094564,2590.729077,2590.470406,2858.899223,2829.335634,
337,2538.870751,2493.664193,2165.773253,2410.557722,1930.312166,2305.672131,2322.187921,2413.456946,2239.841242,2474.240035,2444.8,2594.991717,2527.112683,2695.788956,2493.321139,2592.499914,2561.238654,2810.757377,2800.015531,
345,2550.455738,2504.818119,2045.772045,2350.928387,1677.814495,2198.826747,2341.222951,2419.719586,2243.75082,2455.810181,2323.504573,2555.505953,2515.68887,2709.420708,2471.64849,2585.539085,2512.891631,2721.603451,2766.27679,
353,2520.135979,2507.980155,1812.842623,2250.630026,1488.409318,2030.644349,2340.369629,2414.256946,2254.853149,2430.778947,2180.305953,2508.495772,2489.819327,2733.486281,2421.299741,2572.381018,2424.652804,2581.997929,2737.384469,
361,2465.051251,2506.590164,1441.179638,2093.811217,1377.532873,1817.162209,2286.099223,2396.389646,2257.456083,2363.953236,2031.321657,2434.071268,2450.947541,2742.064884,2322.117688,2551.928214,2270.412597,2363.992925,2696.245039,
