ID,2002,2003,2004,2005,2006,2007,2008,2009,2010,2011,2012,2013,2014,2015,2016,2017,2018,2019,2020,2021
1,,2342.439843,2070.574081,1466.902178,2086.129597,1552.990718,1608.712246,1801.103177,2394.371296,2881.930739,2283.697251,2099.552303,2639.741521,2911.421278,2880.715816,2376.804356,2985.240271,2411.350232,2396.367726,2830.437344
9,,2249.755801,1951.152446,1244.543734,1890.22135,1565.504106,1348.45091,1555.579793,2290.34452,2627.522313,1925.735452,1888.390218,2483.679043,2672.451624,2788.390932,2019.480543,2905.260978,2074.980721,2150.024277,2848.070332
17,,2127.745805,1887.659764,1069.25955,1789.909318,1604.077115,1205.466262,1367.747947,2114.517672,2291.319886,1616.908247,1685.298465,2282.10282,2408.36487,2698.670475,1707.421635,2798.448411,1761.302749,2024.391289,2862.559086
25,,1993.272046,1905.069975,957.675116,1806.006426,1635.044627,1180.947519,1229.111746,1900.547305,1942.678686,1380.306319,1504.695109,2013.169582,2169.665477,2621.496251,1481.781507,2672.238129,1488.491967,2015.979293,2870.220993
33,,1864.348804,1978.038558,921.366298,1902.089611,1632.031774,1263.410568,1140.32774,1717.022492,1635.882542,1228.654409,1398.636201,1774.496608,1981.606926,2582.705105,1389.441271,2553.160657,1275.825419,2095.738308,2874.982149
41,,1738.303463,2107.283827,987.469118,2034.54909,1622.229204,1432.758658,1147.626919,1648.46055,1452.132453,1174.222421,1399.779007,1635.162799,1823.841128,2595.765084,1436.392717,2495.393788,1156.388433,2229.433774,2868.79543
49,,1651.676901,2268.916458,1154.029989,2177.486612,1647.205284,1647.808283,1253.621207,1723.270261,1415.838272,1219.322028,1488.143877,1597.034273,1698.889325,2628.995716,1586.642628,2516.359871,1157.667976,2398.670475,2842.631203
57,,1666.332024,2427.903606,1397.372724,2321.225991,1714.046412,1878.816137,1435.152803,1915.21885,1515.670832,1350.941092,1663.362371,1619.297751,1684.9186,2654.737951,1794.542663,2591.205284,1285.207069,2568.707604,2774.623706
65,,1775.376651,2578.526241,1667.67583,2460.3995,1824.073902,2078.766512,1649.735452,2161.696894,1730.178865,1555.626919,1891.929311,1672.639772,1821.322028,2681.944306,2029.026776,2689.890396,1509.273831,2730.655837,2665.93181
73,,1947.923599,2718.337022,1941.746162,2590.317744,1991.499464,2241.453052,1865.074616,2413.971796,2011.837915,1826.774009,2116.262406,1789.789004,2072.918243,2719.899679,2277.6387,2799.499107,1799.752231,2883.91503,2535.90789
81,,2164.826848,2841.394145,2188.461264,2716.233131,2207.545162,2390.559086,2075.777579,2653.933238,2302.305605,2122.285969,2335.898608,1993.641557,2364.316316,2792.911103,2536.985005,2923.285969,2133.997144,3037.059979,
89,,2386.133167,2970.461978,2396.188147,2845.90789,2452.562656,2545.327026,2280.536951,2884.664049,2570.844698,2399.430203,2549.538736,2252.936808,2632.823991,2910.515887,2785.699036,3063.933595,2470.764013,3184.311317,
97,,2599.732596,3119.119957,2582.303463,2978.591217,2707.885755,2714.369154,2483.058194,3110.831846,2806.309889,2653.338094,2753.082471,2532.769368,2868.596573,3061.540521,3012.848983,3216.511603,2793.980364,3339.188147,
105,,2802.585505,3276.980364,2766.960014,3118.452338,2961.205284,2890.441628,2684.906462,3322.90789,3020.702606,2887.37558,2945.503749,2810.352731,3085.350589,3237.906462,3226.634773,3380.98679,3085.045341,3491.210639,
113,,2987.098536,3432.214209,2961.767226,3268.013567,3200.906105,3070.034273,2881.502321,3506.83613,3227.790075,3099.920386,3117.462692,3069.468761,3290.850411,3428.283827,3424.488397,3548.384506,3350.428418,3648.251339,
121,,3156.916458,3566.032488,3166.307747,3415.592288,3418.765441,3247.471617,3076.424491,3663.720457,3423.823991,3297.97965,3275.600143,3304.384506,3487.381649,3623.770082,3601.688326,3702.647983,3592.068904,3803.938593,
129,,3312.569439,3661.353088,3363.534452,3545.96894,3604.711175,3410.069618,3268.374509,3793.475187,3592.372724,3485.234559,3428.937522,3504.077829,3662.01071,3806.78829,3741.232417,3815.675116,3801.874688,3947.669047,
137,,3450.96537,3725.753302,3548.629418,3647.933952,3749.275259,3547.79543,3457.443413,3901.59693,3726.725812,3650.716887,3574.617637,3661.104963,3807.625848,3959.284184,3846.802213,3895.449482,3967.59086,4075.201357,
145,,3566.957515,3759.308461,3713.069618,3712.475187,3832.446626,3645.056408,3630.02749,3991.838986,3818.469475,3792.29668,3703.531953,3774.626205,3918.818279,4070.256694,3927.253124,3953.074616,4086.302035,4179.476258,
153,,3661.076044,3770.613352,3844.50125,3741.47126,3882.491253,3705.367369,3773.280257,4060.33131,3870.509461,3903.841842,3808.430203,3857.175652,3999.344877,4141.21528,3986.90075,3994.382006,4166.442699,4254.396644,
161,,3736.599072,3760.083185,3932.462692,3744.447697,3915.034273,3732.012853,3865.466262,4098.889325,3886.035345,3973.728311,3889.94502,3914.297751,4055.674759,4179.140307,4024.685112,4018.380935,4219.273831,4294.951803,
169,,3793.947162,3735.072474,3989.062478,3727.94859,3938.793288,3738.672974,3917.520171,4116.277758,3879.796144,4014.480186,3954.513745,3950.985362,4094.999643,4192.705105,4048.559443,4024.556944,4248.896466,4308.404498,
177,,3827.504106,3697.083185,4023.007497,3700.786862,3950.915387,3734.0789,3940.575152,4117.02392,3862.24527,4035.77865,3999.319172,3969.707604,4122.499107,4187.011782,4057.571582,4015.068904,4264.028561,4307.776865,
185,3729.983934,3839.429489,3656.808283,4036.554445,3672.569082,3947.969297,3726.038915,3947.3995,4120.203856,3842.88754,4038.470546,4023.500536,3970.908604,4145.115316,4166.524099,4049.782221,3994.252053,4271.700821,4292.821849,
193,3684.374509,3830.453409,3620.193145,4028.159229,3648.773652,3934.119957,3717.101392,3943.83613,4137.939664,3826.082114,4019.755801,4030.711175,3952.854338,4158.49875,4129.52517,4018.169582,3961.97965,4275.774723,4263.966798,
201,3638.511246,3806.465905,3583.364156,4005.779722,3631.525527,3909.478758,3704.440914,3932.26312,4162.369511,3804.301678,3989.077829,4029.755087,3927.304534,4154.505177,4088.359871,3973.446626,3920.425919,4275.73688,4218.743306,
209,3587.22849,3778.186719,3540.478758,3975.98322,3621.076758,3872.039629,3682.505534,3915.832917,4169.74045,3770.332024,3956.686898,4021.321314,3902.31703,4132.155302,4045.521599,3924.076044,3873.619065,4260.75723,4170.725812,
217,3533.490896,3745.457337,3489.645841,3941.384506,3611.127454,3817.470189,3649.162799,3896.705819,4142.944663,3735.965012,3927.569082,3994.680471,3877.835416,4100.033559,3999.689397,3872.384506,3823.192788,4235.461621,4119.698322,
225,3477.923956,3710.036416,3433.151732,3900.760443,3593.589432,3748.113174,3601.895752,3872.601571,4089.38272,3708.270618,3907.317744,3948.274545,3855.037844,4060.442699,3940.786148,3815.048911,3771.549804,4197.544448,4073.265619,
233,3421.104248,3672.997858,3376.464477,3850.863977,3566.619422,3671.913602,3547.881471,3845.158158,4019.686541,3685.980007,3892.162799,3888.470546,3830.158158,4008.628347,3873.554802,3755.846126,3720.695823,4144.836844,4028.207783,
241,3367.06819,3634.074616,3323.754373,3793.794359,3532.99286,3598.756159,3491.48447,3811.06819,3941.767226,3664.254909,3877.658693,3825.517672,3795.048197,3947.136023,3791.820064,3696.247055,3673.460907,4081.882185,3985.325955,
249,3314.441271,3590.508033,3282.952874,3727.982149,3495.961799,3532.742592,3432.476258,3770.422349,3861.945377,3629.179936,3852.827205,3762.028204,3751.29311,3877.125669,3703.934309,3638.858622,3630.302749,4013.74759,3939.305962,
257,3266.806498,3545.031774,3257.556587,3658.454838,3458.453767,3471.411282,3369.599786,3727.657979,3778.525527,3578.063906,3811.742235,3703.914673,3707.581578,3801.701892,3614.853267,3576.77865,3596.624063,3940.631203,3889.373081,
265,3225.630489,3496.45091,3239.274902,3588.766869,3421.5191,3405.78829,3309.300964,3678.019636,3689.32774,3523.905034,3752.478044,3649.503035,3670.109604,3722.509461,3536.127811,3506.757944,3568.468047,3873.241699,3838.848983,
273,3186.74045,3446.781864,3225.562299,3525.055337,3385.339165,3332.647269,3259.9593,3609.858622,3596.831132,3478.118886,3676.942521,3597.774723,3641.426276,3649.128526,3465.575152,3437.363799,3536.995716,3818.302392,3782.365584,
281,3150.306319,3392.530168,3214.206712,3465.90432,3350.645127,3262.759729,3222.478401,3524.03713,3511.45091,3440.938236,3601.622635,3553.08497,3614.878972,3581.609782,3407.943592,3372.225991,3500.178865,3770.981792,3715.917529,
289,3117.781864,3330.330953,3200.07533,3408.949304,3314.197429,3200.369154,3193.642628,3416.124955,3440.194216,3409.727954,3528.687255,3511.449125,3579.560871,3506.401999,3365.085684,3312.577651,3467.308818,3733.163156,3645.915387,
297,3088.058551,3262.574081,3179.106391,3352.443413,3265.195644,3145.119243,3168.525884,3293.82899,3387.506248,3384.35166,3458.84684,3472.91146,3538.109604,3428.071046,3340.980007,3262.029275,3445.453409,3701.832203,3566.134952,
305,3056.257765,3189.939664,3148.372724,3296.561228,3186.315602,3094.66512,3134.873974,3154.126026,3348.095323,3362.991432,3389.515887,3430.28347,3489.669404,3362.691539,3335.594431,3223.308104,3436.766512,3669.650482,3474.928954,
313,3013.649054,3108.068547,3100.526241,3241.159943,3050.698679,3045.696894,3077.016423,2987.73081,3317.457694,3338.476258,3318.083542,3381.264548,3442.966798,3311.002856,3347.235987,3196.510532,3432.188504,3631.361657,3371.41985,
321,2945.292753,3013.8397,3020.450196,3178.222421,2824.043556,2987.734738,2998.304177,2803.411996,3292.567297,3307.391289,3231.840057,3319.737594,3402.118529,3259.329525,3365.066048,3175.541235,3422.861478,3589.322028,3258.475544,
329,2849.859336,2909.20814,2887.329882,3106.113174,2504.397001,2899.046412,2889.340593,2628.320957,3272.295609,3265.056765,3118.098179,3240.08854,3371.202071,3209.821135,3365.660835,3146.487326,3388.923599,3524.945734,3150.136023,
337,2732.061407,2771.739022,2680.719386,3006.536594,2157.283113,2752.2799,2737.166012,2510.739379,3248.961799,3198.346305,2959.779007,3142.58729,3339.298822,3164.056408,3314.079257,3110.766155,3321.76794,3424.910746,3043.315602,
345,2607.044984,2597.243127,2393.004641,2851.164941,1878.128169,2535.765084,2544.802571,2459.360228,3213.766155,3084.392003,2756.174581,3034.704748,3293.766512,3116.444127,3194.051767,3080.229204,3203.276687,3266.43306,2937.997144,
353,2500.841485,2406.156016,2066.384506,2626.727954,1691.265619,2258.324527,2328.258836,2450.466262,3155.057836,2904.094252,2538.190289,2914.801142,3220.819707,3058.827919,3002.168511,3062.662263,3019.398429,3034.508747,2846.903963,
361,2422.486969,2233.179222,1749.288468,2349.033559,1592.128526,1937.038201,2079.530525,2441.404498,3051.691896,2636.13281,2317.938236,2780.855766,3096.3206,2975.374152,2726.738308,3033.774366,2747.903963,2727.673688,2792.466619,
