ID,2002,2003,2004,2005,2006,2007,2008,2009,2010,2011,2012,2013,2014,2015,2016,2017,2018,2019,2020,2021
1,,2465.97727,2444.5,2680.81818,2517.82955,2505.48864,2334.28409,2492.375,2254.02273,2117.29545,2318.95455,2446.71591,2752.17045,2514.79545,2744.94318,2673.20455,2769.77273,2705.72727,3132.77273,2978.34091
9,,2489.44318,2526.36364,2707.21591,2521.11364,2494.19318,2318.27273,2524.23864,2258.98864,2143.0,2310.03409,2483.68182,2795.72727,2611.90909,2790.39773,2824.95455,2865.14773,2784.39773,3206.51136,2955.54545
17,,2536.46591,2627.03409,2754.17045,2536.03409,2531.78409,2281.23864,2568.53409,2308.30682,2208.47727,2305.70455,2575.98864,2870.0,2760.36364,2863.01136,2988.07955,3025.09091,2919.04545,3317.86364,2964.54545
25,,2615.84091,2734.64773,2829.30682,2565.23864,2627.72727,2235.0,2637.17045,2395.875,2315.04545,2314.51136,2726.84091,2984.18182,2952.86364,2962.04545,3141.18182,3253.80682,3111.82955,3468.09091,3011.31818
33,,2729.56818,2855.19318,2932.60227,2629.40909,2784.38636,2206.03409,2742.21591,2515.44318,2457.82955,2344.81818,2925.09091,3138.57955,3189.80682,3097.20455,3291.85227,3543.77273,3352.65909,3668.94318,3105.48864
41,,2874.81818,2982.25,3064.42045,2734.36364,2989.81818,2209.19318,2890.63636,2650.10227,2619.84091,2403.14773,3158.09091,3324.46591,3466.26136,3274.52273,3445.04545,3863.15909,3617.65909,3919.875,3244.25
49,,3043.06818,3103.32955,3216.45455,2870.15909,3222.68182,2253.68182,3084.05682,2789.23864,2786.44318,2506.03409,3409.88636,3544.71591,3768.46591,3496.09091,3598.47727,4174.02273,3891.09091,4202.03409,3416.42045
57,,3226.73864,3210.89773,3377.73864,3020.75,3459.77273,2336.93182,3307.57955,2912.17045,2959.42045,2658.35227,3647.93182,3785.71591,4064.85227,3737.40909,3741.55682,4415.51136,4159.25,4469.71591,3604.25
65,,3408.34091,3295.64773,3522.78409,3162.96591,3671.46591,2447.32955,3536.05682,3013.69318,3133.79545,2850.61364,3853.69318,4018.46591,4318.79545,3965.27273,3874.48864,4565.22727,4400.96591,4708.75,3797.43182
73,,3556.89773,3340.84091,3639.51136,3266.46591,3819.31818,2570.23864,3746.34091,3082.17045,3293.86364,3060.15909,3997.29545,4191.09091,4499.45455,4119.09091,3979.68182,4606.70455,4588.13636,4902.92045,3982.59091
81,,3635.76136,3338.40909,3703.73864,3311.09091,3874.61364,2697.34091,3895.34091,3109.34091,3426.70455,3246.39773,4054.02273,4272.60227,4588.22727,4176.94318,4019.60227,4534.75,4706.75,5030.27273,
89,,3649.06818,3280.59091,3705.46591,3282.77273,3817.07955,2818.02273,3953.57955,3088.35227,3519.19318,3378.90909,4008.14773,4257.42045,4556.5,4122.79545,3943.71591,4371.23864,4733.39773,5058.90909,
97,,3596.86364,3175.07955,3646.92045,3193.32955,3670.15909,2911.48864,3910.61364,3016.46591,3543.26136,3438.84091,3869.42045,4143.14773,4402.09091,3963.13636,3773.13636,4137.65909,4646.84091,4969.81818,
105,,3465.93182,3044.52273,3541.90909,3062.07955,3472.39773,2949.25,3761.48864,2916.51136,3475.56818,3423.53409,3648.46591,3930.35227,4134.76136,3726.02273,3525.57955,3853.17045,4453.01136,4775.72727,
113,,3290.5,2905.27273,3400.18182,2929.95455,3276.40909,2926.48864,3541.52273,2811.28409,3327.28409,3336.96591,3387.23864,3649.90909,3776.88636,3448.84091,3250.10227,3546.36364,4181.11364,4512.34091,
121,,3114.69318,2794.73864,3248.64773,2822.13636,3123.57955,2873.45455,3302.93182,2724.28409,3114.06818,3208.0,3120.25,3353.23864,3405.48864,3186.42045,2992.36364,3263.71591,3875.55682,4220.54545,
129,,2969.93182,2728.01136,3118.80682,2757.54545,3030.72727,2823.28409,3098.05682,2670.47727,2885.26136,3053.875,2895.73864,3081.65909,3082.18182,2968.78409,2786.25,3038.02273,3564.69318,3929.69318,
137,,2875.34091,2709.70455,3019.02273,2738.89773,3000.73864,2796.26136,2955.80682,2653.93182,2672.51136,2900.15909,2737.31818,2861.21591,2842.07955,2819.79545,2651.10227,2888.53409,3293.18182,3671.59091,
145,,2832.79545,2729.90909,2963.85227,2754.80682,3024.44318,2794.89773,2876.67045,2667.70455,2498.77273,2767.875,2654.15909,2704.67045,2699.05682,2744.60227,2592.67045,2819.82955,3084.90909,3467.46591,
153,,2828.625,2764.43182,2958.15909,2792.76136,3084.21591,2818.79545,2842.40909,2693.84091,2374.29545,2663.39773,2638.78409,2611.10227,2652.43182,2735.69318,2604.84091,2828.04545,2950.54545,3325.25,
161,,2855.27273,2792.42045,2991.80682,2842.40909,3160.05682,2860.06818,2830.55682,2726.44318,2298.375,2593.05682,2677.01136,2576.0,2695.80682,2782.84091,2679.21591,2894.90909,2889.15909,3242.46591,
169,,2896.81818,2797.28409,3049.875,2894.95455,3229.81818,2901.60227,2831.56818,2765.32955,2266.55682,2555.375,2750.02273,2596.51136,2814.03409,2868.35227,2795.45455,2995.79545,2889.96591,3213.30682,
177,,2931.03409,2780.47727,3115.82955,2939.67045,3265.65909,2934.52273,2843.5,2819.98864,2270.14773,2550.63636,2844.5,2661.15909,2977.79545,2975.72727,2929.94318,3104.15909,2935.45455,3226.17045,
185,2619.86364,2953.27273,2755.97727,3176.09091,2964.52273,3257.63636,2965.0,2870.625,2893.29545,2303.82955,2574.96591,2943.54545,2756.45455,3174.96591,3079.54545,3065.34091,3200.18182,3006.86364,3264.06818,
193,2608.69318,2953.26136,2727.73864,3211.625,2966.81818,3221.15909,2989.94318,2905.5,2991.70455,2361.88636,2622.85227,3036.52273,2865.39773,3388.45455,3177.47727,3190.45455,3283.93182,3098.57955,3321.625,
201,2604.64773,2923.80682,2695.13636,3228.61364,2951.0,3164.94318,2995.46591,2934.80682,3116.97727,2441.23864,2691.44318,3120.69318,2969.72727,3589.67045,3266.03409,3303.76136,3363.09091,3196.55682,3394.10227,
209,2615.56818,2880.94318,2655.43182,3235.36364,2924.88636,3096.71591,2979.36364,2967.29545,3259.73864,2541.43182,2783.52273,3182.48864,3062.84091,3755.875,3344.0,3406.94318,3429.78409,3279.39773,3478.45455,
217,2640.19318,2836.45455,2601.04545,3233.19318,2887.94318,3016.75,2957.88636,3011.875,3395.98864,2655.51136,2896.95455,3218.06818,3136.90909,3865.10227,3410.56818,3501.82955,3480.95455,3336.32955,3558.09091,
225,2664.82955,2802.79545,2547.89773,3218.875,2847.77273,2938.20455,2937.84091,3073.02273,3502.07955,2780.42045,3028.44318,3225.53409,3196.64773,3912.88636,3466.17045,3582.55682,3505.38636,3383.60227,3618.94318,
233,2668.51136,2781.19318,2505.22727,3182.89773,2812.65909,2868.92045,2924.30682,3145.18182,3562.78409,2899.96591,3165.28409,3212.10227,3246.25,3899.45455,3505.375,3634.31818,3500.23864,3427.17045,3648.82955,
241,2653.51136,2766.70455,2475.55682,3125.85227,2780.82955,2810.97727,2915.11364,3212.51136,3586.32955,2987.73864,3288.13636,3187.80682,3280.18182,3841.27273,3517.0,3634.89773,3476.86364,3468.09091,3644.38636,
249,2617.69318,2744.53409,2465.10227,3049.78409,2744.57955,2755.61364,2904.93182,3249.51136,3567.44318,3017.68182,3378.46591,3155.05682,3290.61364,3747.72727,3488.47727,3575.02273,3438.71591,3493.09091,3601.40909,
257,2563.64773,2707.5,2471.01136,2962.17045,2702.18182,2695.82955,2888.53409,3248.96591,3512.25,3000.69318,3415.15909,3122.81818,3281.30682,3631.78409,3420.51136,3465.28409,3391.93182,3505.45455,3530.53409,
265,2499.52273,2666.64773,2491.32955,2869.39773,2658.45455,2627.65909,2863.34091,3216.53409,3424.81818,2951.40909,3399.875,3095.82955,3262.51136,3515.02273,3316.07955,3322.76136,3339.31818,3516.39773,3450.77273,
273,2437.23864,2624.23864,2517.51136,2775.23864,2615.67045,2553.02273,2825.90909,3161.10227,3309.15909,2895.57955,3345.97727,3074.63636,3247.55682,3410.01136,3175.15909,3175.72727,3286.11364,3529.53409,3367.15909,
281,2388.51136,2580.69318,2537.03409,2675.95455,2579.26136,2479.875,2769.19318,3093.36364,3181.35227,2848.35227,3261.69318,3049.57955,3239.375,3325.96591,3029.44318,3048.92045,3231.875,3544.31818,3290.85227,
289,2359.27273,2539.57955,2535.89773,2583.27273,2553.85227,2410.51136,2694.30682,3019.20455,3052.29545,2815.375,3160.65909,3011.06818,3220.65909,3257.67045,2888.67045,2953.32955,3176.67045,3565.32955,3234.60227,
297,2351.47727,2504.93182,2525.39773,2511.59091,2546.94318,2346.53409,2613.42045,2950.0,2925.94318,2790.86364,3054.89773,2961.90909,3167.30682,3197.38636,2756.34091,2896.90909,3119.84091,3584.625,3201.96591,
305,2359.65909,2476.38636,2515.20455,2464.09091,2563.07955,2288.125,2534.27273,2886.05682,2794.625,2765.22727,2953.63636,2901.60227,3075.78409,3134.97727,2633.375,2879.14773,3061.60227,3582.61364,3191.57955,
313,2377.70455,2445.30682,2512.67045,2436.29545,2598.63636,2243.67045,2462.13636,2818.375,2662.82955,2725.76136,2859.72727,2831.48864,2958.64773,3059.75,2528.35227,2887.375,2999.36364,3546.63636,3199.92045,
321,2392.36364,2409.15909,2518.30682,2421.36364,2636.68182,2221.42045,2408.06818,2741.92045,2534.14773,2663.35227,2774.44318,2766.39773,2825.05682,2964.69318,2447.67045,2879.36364,2932.71591,3472.79545,3209.04545,
329,2401.69318,2373.93182,2527.32955,2415.875,2666.56818,2222.0,2383.95455,2654.75,2416.61364,2588.21591,2691.0,2719.09091,2698.02273,2870.90909,2398.79545,2848.21591,2854.40909,3371.11364,3200.94318,
337,2411.48864,2348.82955,2547.36364,2427.84091,2676.03409,2240.98864,2389.72727,2552.31818,2311.25,2507.45455,2607.09091,2696.10227,2593.82955,2793.32955,2380.61364,2802.86364,2776.81818,3267.73864,3179.20455,
345,2427.03409,2339.86364,2581.29545,2456.31818,2647.63636,2267.56818,2414.54545,2451.23864,2224.39773,2433.59091,2535.44318,2694.15909,2520.36364,2739.28409,2395.57955,2758.75,2711.53409,3178.43182,3143.53409,
353,2447.77273,2350.40909,2624.04545,2489.46591,2600.51136,2299.29545,2440.78409,2361.17045,2161.19318,2375.94318,2483.29545,2705.875,2478.07955,2714.79545,2451.43182,2728.67045,2671.92045,3118.54545,3099.01136,
361,2457.53409,2385.11364,2656.75,2508.05682,2546.0,2326.30682,2463.06818,2291.35227,2124.79545,2338.52273,2451.09091,2724.82955,2472.45455,2719.02273,2546.80682,2728.22727,2667.20455,3101.625,3041.86364,
