ID,2002,2003,2004,2005,2006,2007,2008,2009,2010,2011,2012,2013,2014,2015,2016,2017,2018,2019,2020,2021
1,,2073.97122,2212.11193,2760.94539,2206.09754,2504.77036,1995.13357,2732.17526,2883.53234,2164.37079,2315.79925,2965.26226,2667.79449,2645.38099,2835.52453,2781.21548,2514.25739,3311.35799,3221.2029,2632.93191
9,,2137.55138,2286.54197,2777.09901,2270.42075,2541.76085,1750.65945,2876.15249,3044.84797,2274.57335,2310.0946,3017.99909,2687.27586,2796.41079,2870.34134,2883.70182,2573.61063,3481.09709,3198.05551,2624.93055
17,,2240.22646,2376.91447,2803.76413,2376.29523,2633.4297,1634.31166,3069.399,3244.59805,2420.42982,2299.01892,3131.83822,2733.34394,3006.94664,2941.68914,2977.51988,2686.6547,3676.6624,3231.09471,2679.66908
25,,2366.20154,2494.74306,2887.43854,2543.32537,2791.10932,1695.29602,3328.89872,3467.74839,2591.29149,2280.93678,3316.04905,2810.51909,3289.97927,3063.63226,3074.56191,2870.10026,3903.89543,3333.05766,2810.30214
33,,2532.06525,2647.34587,3056.66863,2783.25422,3021.40489,1904.66047,3663.48454,3696.02934,2775.78407,2268.0469,3556.28028,2935.30803,3640.05302,3252.52407,3196.11646,3130.56259,4133.5226,3518.23473,3018.86235
41,,2758.80016,2836.79608,3318.61233,3091.11941,3306.07806,2152.86757,4071.41464,3939.98607,2969.63702,2285.04735,3841.81398,3109.98357,4028.73604,3522.11691,3365.43763,3474.90597,4354.19588,3793.71485,3289.95604
49,,3070.45395,3077.09244,3675.70749,3430.3197,3619.89113,2448.31177,4537.20981,4206.92885,3175.21389,2358.89929,4166.1799,3349.32061,4401.86813,3872.33069,3595.25898,3886.1526,4594.70103,4157.23881,3608.24799
57,,3470.48895,3370.85805,4105.48839,3797.64937,3954.67531,2821.8738,5023.10015,4502.63589,3417.43582,2514.38926,4494.99875,3663.53404,4756.21649,4271.41566,3894.83754,4321.34225,4880.82531,4579.15067,3947.22454
65,,3946.29444,3713.40229,4546.91979,4184.57415,4317.15872,3283.82678,5501.30781,4816.44296,3724.65481,2758.66852,4823.41917,4048.88422,5098.70907,4711.20029,4272.98391,4760.55013,5221.43933,5045.7212,4293.94517
73,,4456.07239,4077.33579,4888.05143,4585.04996,4714.17854,3826.1594,5945.9028,5127.87414,4101.15305,3090.35369,5144.32265,4483.65492,5425.68109,5143.3632,4710.01088,5161.41656,5603.99705,5519.8875,4647.99298
81,,4919.21446,4434.89532,5149.89566,4974.0938,5123.31574,4407.29784,6327.78917,5412.01473,4527.58468,3504.69435,5441.34157,4931.17911,5707.47661,5516.37295,5144.36105,5511.20143,5982.16325,5942.95446,
89,,5282.98493,4766.4979,5352.27178,5301.1313,5496.25309,4945.63034,6585.37827,5647.84661,4953.5746,3971.31664,5676.18058,5340.29829,5907.4433,5796.91968,5478.68041,5783.89487,6263.82259,6260.46244,
97,,5541.54571,5038.83052,5511.65617,5494.03693,5756.62728,5330.56089,6671.49383,5807.65424,5322.82508,4429.55251,5818.03954,5646.7076,6005.87652,5967.84196,5691.11544,5939.93214,6390.64756,6436.24414,
105,,5667.80231,5219.30044,5619.13583,5539.21842,5877.64235,5544.9335,6577.96137,5852.3512,5560.42642,4819.81862,5827.9318,5829.03081,5987.44115,6013.78906,5780.41736,5963.11068,6332.50459,6458.55002,
113,,5662.99275,5278.47842,5637.03818,5438.22918,5839.69877,5583.92919,6315.1483,5743.87312,5619.03376,5106.70341,5721.39073,5879.91798,5858.8423,5923.10003,5742.1262,5853.16053,6138.66738,6335.14546,
121,,5547.81715,5202.67962,5549.40671,5219.11805,5654.10185,5455.6692,5915.01393,5485.46652,5495.84536,5242.92058,5524.14762,5783.29364,5616.97972,5692.47162,5576.11306,5632.12111,5856.55489,6090.57653,
129,,5334.31619,5002.99853,5353.80084,4898.26362,5359.54956,5189.23462,5436.21785,5127.79982,5222.92614,5229.85397,5256.35561,5561.01563,5275.68234,5338.33398,5301.39345,5316.51127,5519.7877,5763.34202,
137,,5034.80696,4698.76595,5066.15849,4514.15101,4987.0128,4830.04384,4928.82599,4713.20539,4855.3811,5092.15532,4933.64076,5224.30373,4885.01348,4928.36082,4941.37329,4950.30123,5162.5013,5386.01597,
145,,4670.19112,4346.59159,4713.48805,4126.6343,4560.16121,4429.43446,4431.35822,4314.4859,4466.33364,4863.60983,4578.05449,4811.62626,4487.14127,4523.33443,4567.93554,4574.08791,4807.07216,5000.01767,
153,,4300.90223,3992.59091,4343.04758,3765.86349,4149.09845,4032.23145,4005.33137,3976.77501,4113.60995,4589.2643,4224.67849,4403.81568,4146.08485,4162.14943,4230.06559,4236.50787,4482.24334,4653.25354,
161,,3965.97576,3680.88875,4007.47638,3471.73955,3802.15079,3688.52373,3678.00091,3733.30599,3828.31891,4299.29308,3926.80378,4042.82825,3887.35595,3885.16597,3971.08417,3961.75099,4219.3734,4398.66784,
169,,3700.07183,3428.05902,3728.23972,3256.72097,3548.0921,3427.24856,3466.31698,3588.20211,3618.20415,4036.90336,3704.98709,3764.46301,3717.36626,3703.79937,3803.24232,3751.55681,4044.2481,4257.64439,
177,,3515.64405,3244.44466,3529.42257,3121.89011,3391.06435,3255.3657,3364.48374,3531.87618,3480.30917,3835.13878,3557.15724,3576.56305,3627.26113,3619.95638,3720.68902,3599.45723,3965.16291,4228.31279,
185,2945.7937,3409.72108,3122.80888,3410.69831,3054.58423,3322.06718,3161.34009,3353.37351,3546.76866,3402.49451,3705.50731,3477.41554,3470.44047,3598.44681,3621.39062,3705.61584,3502.70545,3973.38292,4289.91322,
193,3015.49575,3368.48148,3049.94834,3363.06525,3035.08859,3323.5942,3126.59477,3410.22794,3607.18364,3378.81047,3644.60077,3452.47706,3431.24131,3616.00464,3686.20324,3746.06072,3457.54209,4051.6871,4416.51263,
201,3082.29636,3375.40387,3015.42234,3367.62717,3043.17118,3371.40818,3123.97349,3507.25535,3688.6641,3392.27042,3633.7042,3464.0716,3444.96329,3660.29806,3791.98629,3826.26815,3457.18217,4176.73966,4573.83777,
209,3142.83981,3410.46743,3009.07998,3402.63838,3061.19429,3441.24051,3133.89883,3627.87776,3771.11431,3426.38937,3652.04078,3498.06152,3488.3811,3708.06582,3912.85408,3929.47457,3486.91254,4322.243,4732.07692,
217,3187.80005,3444.74782,3014.72233,3447.21344,3071.2302,3503.43888,3142.20551,3742.53461,3836.8994,3461.03047,3677.87402,3537.0793,3534.74136,3736.36468,4025.53359,4034.84457,3528.0,4455.76459,4863.35278,
225,3209.79778,3458.67044,3014.97168,3479.96692,3061.36524,3537.83528,3139.27699,3826.68415,3869.39311,3476.88535,3695.78339,3561.98357,3566.58604,3736.85975,4101.312,4113.38462,3561.59216,4551.83097,4936.58151,
233,3200.66263,3433.6104,2989.06877,3480.90642,3019.01733,3526.54809,3112.91447,3858.69355,3849.78724,3463.90688,3689.76277,3547.40671,3569.43242,3693.68007,4125.99898,4147.90642,3567.52838,4588.57585,4926.13334,
241,3152.38269,3363.86926,2930.40727,3431.31494,2943.27371,3459.6564,3050.61844,3832.93803,3773.28549,3416.17911,3647.45168,3489.73151,3530.72426,3605.36706,4088.13935,4122.00657,3539.06605,4554.62297,4823.6948,
249,3060.7229,3254.02719,2835.32117,3331.38688,2845.94222,3339.82146,2951.95944,3749.93939,3641.14762,3331.8372,3572.5516,3389.40025,3444.36536,3483.93565,3980.25071,4031.92817,3473.68936,4446.81908,4630.23179,
257,2933.63068,3113.23315,2721.94438,3196.09732,2746.9429,3176.73876,2823.33194,3606.88682,3476.20392,3224.64609,3466.12972,3252.63521,3317.63204,3347.14365,3814.42495,3882.93214,3368.91469,4279.21819,4365.65911,
265,2800.30905,2966.48442,2603.72346,3036.20913,2662.24198,2986.86666,2686.33839,3422.47695,3292.12813,3104.02005,3329.97394,3102.64008,3176.45961,3219.61697,3599.71247,3684.19622,3238.39323,4061.94619,4058.21106,
273,2682.35335,2826.89917,2490.05461,2877.73434,2611.2481,2785.59465,2554.02039,3217.49485,3118.97995,2992.96069,3172.49258,2956.73049,3039.13697,3112.89509,3370.60961,3474.76923,3091.64314,3834.16076,3749.02413,
281,2597.58083,2710.08168,2388.10264,2735.11272,2600.67146,2604.32061,2438.51682,3016.9369,2967.57789,2901.42846,3023.4595,2833.31993,2917.22522,3033.18194,3155.78577,3288.6138,2951.19701,3628.56565,3471.87969,
289,2548.653,2619.4885,2308.8943,2618.94562,2628.61233,2460.02186,2344.74046,2832.67633,2840.88161,2833.07092,2901.7016,2743.58174,2811.98641,2980.83868,2968.68925,3143.25467,2828.91934,3461.11805,3248.82791,
297,2526.52464,2555.58094,2255.55579,2530.13481,2682.92149,2362.94404,2274.43344,2675.68653,2730.50572,2785.72901,2822.66795,2688.86949,2720.6164,2941.12575,2815.69367,3043.00249,2737.24153,3332.15781,3090.58502,
305,2509.71655,2504.06865,2234.12371,2465.17594,2739.10989,2315.36547,2226.75756,2550.85386,2626.72901,2746.21887,2787.5311,2663.70556,2635.28447,2888.84298,2695.93712,2976.65968,2671.21128,3229.07149,2997.0588,
313,2470.64189,2444.01699,2248.1935,2410.05381,2766.04124,2318.97757,2205.89464,2468.40727,2520.31438,2699.8329,2786.85114,2661.85182,2555.43797,2834.39515,2608.70386,2925.06118,2637.92251,3154.20494,2950.01677,
321,2397.83516,2362.58219,2298.97383,2345.44398,2752.19837,2363.97689,2217.02152,2432.14999,2408.08066,2642.62467,2808.63555,2674.14161,2484.85544,2789.61165,2545.8883,2864.05778,2643.01903,3111.13017,2925.46131,
329,2305.00385,2276.86711,2378.57517,2282.55047,2702.84434,2431.052,2264.64688,2438.57415,2292.59035,2565.67599,2837.39991,2688.13323,2430.46233,2761.26759,2508.00261,2783.97904,2683.37329,3100.6044,2909.22522,
337,2215.20165,2201.87436,2470.66285,2228.90427,2648.94641,2486.23904,2340.21162,2478.22998,2191.82644,2481.66138,2872.35301,2696.51705,2396.15453,2748.80435,2499.50572,2689.68336,2760.4518,3120.89951,2877.23032,
345,2140.994,2151.65662,2568.93894,2192.85261,2601.58797,2488.52793,2431.98595,2548.77286,2120.06276,2402.42857,2908.5797,2696.17073,2400.36694,2759.00068,2526.94358,2600.68324,2871.93667,3161.49247,2833.24187,
353,2084.87062,2139.25524,2661.08213,2177.37669,2552.80639,2411.71519,2527.37736,2646.23405,2087.93826,2350.17345,2933.86383,2685.07556,2445.71995,2785.16699,2589.81942,2535.30611,3010.05642,3205.34372,2776.97417,
361,2058.65515,2163.75564,2727.25615,2179.49541,2513.70658,2236.57562,2622.11182,2755.55829,2102.24516,2326.51263,2948.44409,2670.88252,2529.55081,2813.48669,2680.87346,2503.63657,3155.41328,3231.72845,2702.48918,
