ID,2002,2003,2004,2005,2006,2007,2008,2009,2010,2011,2012,2013,2014,2015,2016,2017,2018,2019,2020,2021
1,,371.8089172,361.5350318,411.0191083,35.0828025,194.9363057,206.5031847,474.1210191,380.0127389,130.5095541,393.7261146,87.5859873,445.4140127,114.0636943,449.7197452,95.6369427,330.2356688,462.7770701,436.5859873,343.8471338
9,,438.9490446,408.0636943,446.5031847,92.1783439,220.1146497,243.7579618,532.1019108,455.9171975,205.2802548,428.2866242,107.0,503.2611465,179.0127389,510.2547771,132.133758,378.5859873,531.5286624,501.4203822,412.6751592
17,,510.3949045,468.9808917,482.1019108,169.9490446,255.7834395,288.6433121,595.5923567,534.7324841,288.6815287,467.2547771,131.4458599,564.4012739,249.0,579.2802548,178.6624204,439.5095541,608.2484076,583.3757962,491.4203822
25,,584.955414,542.4649682,523.4394904,268.1019108,301.9490446,345.388535,666.133758,612.5605096,380.611465,515.2802548,164.0254777,626.955414,323.5350318,654.2993631,234.910828,516.3248408,696.2229299,678.7898089,578.1019108
33,,659.5350318,622.2929936,574.6050955,382.6496815,356.5159236,413.6178344,742.1974522,685.656051,478.433121,573.6050955,205.1210191,686.433121,399.7961783,731.0063694,298.1146497,605.9745223,792.5286624,780.9299363,674.4904459
41,,734.5796178,701.9299363,634.8152866,508.4076433,415.9044586,492.4394904,824.566879,756.2547771,579.9872611,642.0063694,256.3566879,740.9808917,476.7961783,803.8407643,365.5605096,704.3375796,880.5605096,878.611465,781.6305732
49,,807.3757962,770.2993631,703.1847134,638.6751592,475.5541401,573.7834395,902.7261146,822.7388535,685.5477707,715.5732484,316.5031847,781.0063694,542.8343949,863.0254777,436.6305732,803.8789809,951.8216561,967.4713376,899.5796178
57,,868.4267516,819.9936306,770.4968153,755.1783439,527.0254777,648.3057325,964.4267516,877.9299363,777.4458599,782.3694268,381.5095541,794.9490446,599.4394904,897.2038217,505.2229299,884.6369427,1006.3694268,1041.8089172,1014.8726115
65,,915.4840764,848.0700637,829.0764331,839.1656051,547.9299363,702.8407643,1001.8280255,924.4968153,849.7006369,834.4585987,441.5796178,775.9808917,642.1656051,902.3312102,562.5159236,947.1146497,1037.6369427,1100.1082803,1123.2929936
73,,945.8471338,861.6751592,881.2165605,886.566879,533.7388535,733.2420382,1007.7388535,961.3057325,904.4522293,867.6496815,484.656051,736.9299363,660.3566879,872.4140127,595.2866242,981.477707,1041.1273885,1135.4713376,1225.4267516
81,,952.866242,860.5159236,924.566879,891.955414,482.9044586,740.5541401,973.0700637,983.1273885,936.7643312,880.5286624,510.1974522,685.8216561,646.6242038,817.0828025,597.1210191,982.1082803,1013.4840764,1141.4968153,
89,,932.388535,836.6242038,955.2292994,856.6942675,410.3566879,721.2356688,891.6687898,985.6178344,936.3694268,874.089172,521.0764331,625.0318471,603.7452229,732.3184713,570.8598726,947.477707,954.9681529,1109.1847134,
97,,881.8598726,768.6050955,963.2356688,790.4394904,327.7070064,675.1847134,777.1019108,965.6496815,897.7133758,855.5541401,508.3757962,560.4140127,546.0254777,636.3630573,528.2802548,875.8598726,872.4203822,1037.2038217,
105,,808.3757962,675.7452229,935.9299363,701.4713376,242.9235669,612.0636943,639.3630573,924.0382166,822.8535032,836.8535032,473.5286624,490.5796178,484.2738854,546.8726115,486.4649682,780.7324841,782.9490446,940.5031847,
113,,719.8343949,568.611465,875.7006369,593.6178344,159.2866242,535.0191083,497.6815287,870.9299363,717.7643312,827.4076433,419.8343949,419.4968153,422.6496815,470.7197452,442.4076433,677.3375796,699.522293,840.8407643,
121,,622.1592357,446.2611465,788.6050955,474.3821656,82.9363057,449.7261146,372.1273885,816.8280255,590.7133758,833.6496815,352.2101911,349.5350318,364.8280255,410.1146497,398.1146497,573.9936306,621.3121019,747.2229299,
129,,522.8789809,317.611465,683.8535032,355.7006369,17.8980892,359.1082803,262.6751592,772.0573248,461.7707006,857.5732484,275.2101911,285.7324841,308.0382166,361.5477707,352.8535032,476.5031847,550.6050955,662.4458599,
137,,427.4904459,196.0700637,571.7452229,247.1401274,-33.3375796,266.5031847,172.7707006,746.9426752,349.2292994,898.0828025,200.5477707,229.388535,254.4649682,322.0382166,315.9490446,394.2866242,480.388535,592.4458599,
145,,339.0955414,89.3312102,459.4458599,156.5350318,-73.8216561,184.1974522,101.2611465,747.5414013,262.1656051,954.8407643,132.8726115,178.5286624,205.2229299,291.8280255,295.7133758,331.2292994,410.7388535,530.7452229,
153,,262.1656051,-0.9363057,351.0318471,85.4840764,-104.8025478,119.5095541,46.5286624,767.6878981,202.3694268,1025.0,75.5987261,131.089172,164.0509554,269.5477707,295.8535032,287.8343949,343.6242038,471.5987261,
161,,197.1910828,-75.1974522,251.7452229,37.2101911,-129.3949045,78.5987261,8.3949045,795.9936306,161.566879,1080.2356688,30.8407643,91.133758,131.1146497,255.7070064,316.133758,261.0318471,278.1082803,418.1847134,
169,,141.2993631,-126.1783439,163.3375796,14.2420382,-150.343949,64.4713376,-16.4458599,817.4904459,139.2802548,1083.1464968,-1.3057325,59.0318471,104.3057325,247.7197452,358.6751592,246.2675159,219.8598726,367.8343949,
177,,93.1783439,-157.8598726,86.656051,7.1273885,-163.0,64.4394904,-33.8343949,800.5605096,122.3630573,974.2802548,-20.5605096,34.1974522,82.8343949,242.4203822,414.2229299,239.9872611,179.2675159,320.866242,
185,-119.3248408,45.1273885,-171.343949,21.4713376,10.7006369,-166.3630573,79.0828025,-51.133758,689.8980892,110.0191083,799.4203822,-30.1592357,14.8216561,65.0063694,235.7834395,455.7961783,239.2038217,156.6751592,282.8089172,
193,-128.343949,-8.0382166,-176.388535,-33.1910828,19.1146497,-161.955414,100.8789809,-72.656051,555.9299363,93.3375796,601.9490446,-33.3184713,0.5732484,55.8089172,230.2101911,450.3312102,230.6305732,146.0191083,250.8726115,
201,-140.2675159,-59.5350318,-171.611465,-77.0764331,31.5477707,-152.4522293,125.7579618,-98.2484076,427.0828025,75.044586,421.8980892,-26.6305732,-8.1464968,53.4076433,228.0700637,405.6687898,211.6496815,140.8089172,221.0,
209,-151.2356688,-102.4713376,-160.7579618,-109.7261146,48.1592357,-142.1656051,156.1847134,-124.2229299,314.1719745,65.656051,284.5605096,-15.7324841,-10.566879,51.3949045,225.0509554,338.7452229,193.0318471,134.3057325,192.5031847,
217,-159.3821656,-133.9426752,-150.7006369,-133.0509554,58.2738854,-135.6433121,177.3949045,-148.8853503,217.1847134,63.3375796,188.7324841,-2.7898089,-9.6496815,50.1019108,218.7261146,268.5159236,159.955414,122.9363057,163.3121019,
225,-164.5095541,-151.5031847,-147.0127389,-148.3630573,51.9044586,-138.9617834,171.3248408,-165.9363057,130.044586,59.9808917,119.9936306,14.0700637,-9.1974522,47.6624204,210.9171975,203.5286624,127.955414,97.9235669,130.1719745,
233,-170.0509554,-156.1783439,-153.9681529,-156.2101911,35.6050955,-148.4713376,140.7515924,-169.9363057,52.4840764,60.3630573,77.2038217,32.3057325,-13.7834395,38.1273885,196.4203822,148.6242038,101.7643312,67.5414013,93.4840764,
241,-181.6305732,-147.8216561,-158.343949,-160.5031847,13.1273885,-158.2802548,103.3121019,-159.9363057,-24.3375796,64.0700637,53.343949,46.9872611,-27.4140127,30.5031847,175.0127389,109.343949,79.566879,44.8152866,52.0573248,
249,-195.2229299,-128.4140127,-159.5923567,-166.2101911,-9.2038217,-159.9235669,62.4904459,-144.8025478,-89.6496815,73.2038217,33.6242038,53.5286624,-46.3694268,29.0,156.4267516,85.8025478,68.3694268,27.3057325,7.8152866,
257,-205.7452229,-102.5350318,-162.5477707,-169.7133758,-28.8980892,-153.9872611,24.3121019,-125.3057325,-141.1401274,86.2611465,15.8726115,58.3949045,-69.6178344,33.8789809,142.2675159,73.4713376,67.7643312,15.4203822,-31.6624204,
265,-210.089172,-72.7961783,-162.2993631,-169.1146497,-39.910828,-144.0828025,-2.611465,-104.0318471,-179.8343949,99.1210191,2.866242,61.8789809,-95.2866242,32.3312102,136.2229299,74.5923567,72.1974522,11.8535032,-60.910828,
273,-204.3248408,-46.3057325,-157.5286624,-163.5477707,-45.7006369,-131.7133758,-16.2484076,-86.955414,-205.1528662,113.7388535,-4.9044586,67.3757962,-120.5732484,33.7070064,128.388535,86.4968153,80.3694268,16.7579618,-79.0127389,
281,-187.9363057,-19.4522293,-140.910828,-152.5796178,-42.0509554,-117.0,-15.955414,-70.6687898,-221.1464968,130.3312102,-7.0254777,74.133758,-143.5031847,41.7834395,125.5987261,98.4840764,89.1783439,32.8152866,-86.8535032,
289,-162.0063694,7.7261146,-110.8726115,-138.7515924,-26.4585987,-101.7707006,-2.3121019,-53.8598726,-223.6433121,148.9426752,-7.2038217,79.955414,-159.9808917,59.0382166,127.133758,110.6369427,99.522293,58.9490446,-84.4012739,
297,-127.9363057,36.3312102,-66.343949,-123.6433121,0.566879,-85.2547771,23.133758,-33.8853503,-214.0,171.5095541,-4.9235669,88.7324841,-167.3694268,83.9044586,130.1719745,128.2038217,114.1656051,92.4267516,-71.2611465,
305,-87.7579618,67.4140127,-12.1464968,-107.433121,32.7324841,-66.5031847,60.0063694,-11.044586,-197.4585987,197.7643312,-0.2484076,103.3757962,-165.7770701,115.3503185,129.1847134,148.343949,134.2165605,131.343949,-49.2929936,
313,-42.5732484,100.6496815,45.7324841,-91.0254777,64.1656051,-43.6942675,106.2929936,16.3184713,-175.388535,227.1719745,6.1974522,126.1082803,-155.656051,151.1783439,121.9299363,166.5350318,158.3821656,173.3949045,-19.6751592,
321,7.1082803,136.433121,103.3057325,-78.2484076,90.5414013,-15.7070064,157.8535032,47.2292994,-148.0382166,257.8726115,14.6178344,156.0700637,-138.3949045,191.1783439,108.6751592,182.0,186.2484076,216.433121,16.1592357,
329,61.7579618,175.4968153,159.5923567,-68.0509554,113.1719745,18.7898089,212.7707006,81.4522293,-116.9872611,286.7707006,24.4840764,192.3375796,-113.2802548,232.6624204,88.7643312,200.2356688,219.1401274,257.8917197,48.5859873,
337,120.4522293,215.5286624,216.2611465,-58.5286624,131.7898089,58.1528662,267.5987261,124.1082803,-83.3312102,309.8471338,34.0318471,234.433121,-80.2038217,272.3694268,70.2929936,220.5286624,257.1464968,294.522293,68.955414,
345,182.1783439,254.2292994,275.4203822,-47.1401274,148.522293,98.044586,320.2292994,177.1082803,-42.566879,328.4012739,44.2675159,282.2547771,-40.1401274,311.5031847,57.6369427,241.7707006,300.0764331,325.0509554,81.2993631,
353,244.6305732,291.477707,328.9299363,-30.6178344,164.8598726,136.5286624,371.1592357,239.0382166,6.5477707,345.1273885,56.1910828,335.1210191,5.5477707,352.3375796,57.3057325,264.433121,347.9044586,353.6687898,89.7707006,
361,307.9044586,324.3566879,372.6942675,-4.477707,178.1719745,172.1974522,421.7643312,307.5859873,64.2484076,366.2929936,70.7707006,389.9490446,56.7261146,397.388535,70.2611465,292.7770701,401.9681529,388.5796178,99.656051,
