ID,2002,2003,2004,2005,2006,2007,2008,2009,2010,2011,2012,2013,2014,2015,2016,2017,2018,2019,2020,2021
1,,1236.1205,1620.444,782.1452,1437.8217,328.2849,517.9494,1172.3783,1786.2392,1800.0319,1426.6843,700.9392,1744.841,1996.9831,2011.312,1667.759,2192.95,1411.3048,1460.7217,2119.7012
9,,1133.5831,1513.2765,553.1837,1325.0151,202.4145,402.447,924.7241,1696.3759,1663.2458,1121.1964,529.6036,1544.7602,1867.5681,1925.2024,1426.6693,2113.4361,1066.4428,1195.6524,2105.1602
17,,1056.4614,1425.6699,395.9307,1289.4253,144.9289,369.4392,738.1693,1613.0187,1507.7994,844.6301,430.4139,1379.3367,1764.9759,1888.2958,1222.556,2047.3229,767.7813,1025.7765,2113.8795
25,,1012.4199,1382.8988,322.7024,1338.7729,152.1747,422.4518,634.112,1553.162,1351.5108,630.7464,405.0018,1256.1819,1705.9494,1901.9958,1087.6084,2006.2307,539.806,968.3253,2141.4343
33,,1019.9301,1400.3042,341.6187,1465.1259,221.3367,561.9012,624.6928,1547.1506,1221.6681,503.7373,466.1994,1195.5373,1697.8735,1967.5488,1048.0542,2006.6187,401.6289,1029.25,2186.103
41,,1090.7434,1486.6018,456.7898,1647.8247,358.7608,783.6289,715.9301,1619.656,1153.7886,479.0145,621.0199,1216.9753,1745.2367,2086.2151,1116.4193,2066.9554,368.8319,1203.8946,2246.591
49,,1232.162,1640.7295,666.3054,1865.2819,573.6422,1077.5596,906.1355,1780.7018,1173.6175,565.4614,869.9108,1327.4982,1861.3639,2258.3349,1291.5283,2196.9783,453.6488,1475.7506,2322.609
57,,1440.3898,1851.6916,959.4657,2103.2958,870.1295,1424.3976,1183.5464,2023.9831,1293.2663,764.812,1208.5747,1524.5229,2060.2072,2482.1753,1560.7199,2393.0886,663.6916,1812.6958,2411.7373
65,,1702.597,2109.4958,1314.4506,2360.8578,1246.294,1800.0584,1529.0229,2339.0199,1510.0084,1070.2536,1621.6988,1796.1392,2346.5422,2751.7867,1907.909,2651.2518,1000.3705,2195.7928,2511.7018
73,,2004.1349,2405.1795,1705.0717,2637.5614,1691.2651,2195.5253,1918.453,2713.3193,1807.9199,1462.097,2078.2139,2132.6319,2703.9602,3054.9645,2313.903,2964.9313,1453.1476,2613.4139,2617.0651
81,,2334.9645,2727.3554,2106.5518,2933.0572,2182.3283,2606.8602,2328.8199,3128.4934,2169.0072,1910.0633,2547.5072,2519.2898,3104.8639,3383.7325,2751.3663,3321.7675,1996.6337,3055.903,
89,,2682.6898,3063.1681,2519.0813,3240.9627,2691.003,3027.3627,2749.2102,3560.7843,2574.1783,2386.2187,3013.9711,2940.4578,3523.2476,3730.9747,3194.1542,3701.0193,2595.1681,3510.6048,
97,,3036.0741,3393.894,2943.1199,3557.8741,3194.1506,3444.1554,3174.7976,3981.4663,3007.2958,2869.2645,3463.8747,3381.3548,3945.6464,4088.4596,3638.5048,4075.8663,3208.5873,3962.5572,
105,,3375.2596,3698.3554,3371.738,3877.5855,3664.5416,3843.0735,3597.347,4363.9904,3445.3976,3345.7163,3886.6645,3827.85,4353.1145,4442.5723,4075.1337,4427.0078,3795.5717,4391.7693,
113,,3684.5102,3959.8127,3798.7163,4188.1036,4079.6337,4209.6801,4007.8837,4680.1042,3868.8343,3797.4054,4274.2452,4259.2157,4722.0229,4769.4199,4486.3446,4739.4777,4336.8572,4788.2253,
121,,3957.1669,4169.7163,4207.3651,4466.6169,4420.8819,4532.1066,4392.8669,4923.5735,4251.4175,4213.5301,4617.7958,4653.4584,5031.2566,5051.5922,4844.9536,4998.6982,4806.3259,5135.756,
129,,4188.456,4327.4711,4575.3657,4697.5651,4686.9265,4797.7536,4733.7669,5093.6331,4575.6,4581.4831,4912.591,4979.594,5256.509,5268.5151,5132.4928,5202.2542,5192.0054,5423.509,
137,,4372.291,4429.706,4884.3193,4867.2024,4882.6524,4994.891,5017.947,5195.8283,4827.3843,4887.9681,5154.2813,5224.7693,5407.2687,5415.7289,5335.8398,5349.6988,5486.6151,5642.2464,
145,,4502.094,4478.0084,5118.1554,4970.9548,5020.0524,5118.7102,5231.4849,5233.7705,5003.7096,5126.7861,5338.1783,5394.7313,5499.2783,5502.8735,5462.6307,5445.3584,5691.6458,5795.0169,
153,,4581.4494,4479.1849,5269.2976,5013.5807,5108.612,5173.947,5373.8494,5214.0627,5106.3717,5299.2343,5462.1108,5500.4602,5547.5518,5543.8753,5526.8976,5494.3825,5817.1133,5890.7301,
161,,4617.0861,4441.9494,5339.7193,4999.3313,5155.2512,5166.2265,5445.7693,5149.9602,5143.5964,5407.0277,5530.8428,5552.9747,5565.3759,5553.3861,5543.5241,5500.8283,5879.9627,5943.4729,
169,,4618.3699,4373.8693,5336.9422,4936.5687,5163.3036,5105.4373,5456.4145,5057.4157,5123.5771,5454.5572,5554.8807,5563.8253,5561.6639,5541.6964,5523.8994,5470.0145,5896.4066,5964.1578,
177,,4589.7645,4280.7416,5274.3976,4834.3253,5136.2012,5002.9723,5414.738,4960.1078,5059.5892,5448.588,5540.7102,5541.4633,5543.6223,5512.0675,5478.5018,5410.3735,5880.2675,5962.503,
185,3824.7819,4537.7765,4169.7205,5167.4657,4702.6241,5077.1175,4868.8602,5333.8602,4885.4518,4968.6669,5398.9771,5493.7639,5491.8331,5516.7765,5464.5819,5412.8548,5331.4843,5842.1825,5942.3102,
193,3735.3458,4467.5313,4044.7705,5030.688,4555.4958,4992.6831,4714.1542,5225.3102,4823.6958,4866.7572,5318.688,5421.597,5419.2072,5482.2663,5402.0627,5333.7181,5240.8343,5790.6825,5908.0687,
201,3648.306,4384.453,3909.5042,4879.5524,4410.0446,4892.6633,4550.5428,5099.3675,4765.8608,4764.5994,5222.1711,5332.859,5329.4584,5435.4982,5330.7988,5242.0801,5143.8446,5730.6464,5859.1283,
209,3566.1223,4300.0181,3774.0331,4727.1855,4278.0789,4784.7072,4393.0331,4971.4735,4707.4392,4673.0837,5123.4018,5234.6771,5231.3735,5374.2994,5253.0265,5142.8175,5045.1584,5664.8325,5795.3669,
217,3491.3843,4218.3892,3647.2904,4583.4343,4166.4542,4674.4355,4252.9819,4852.8428,4643.7133,4597.4114,5031.3994,5133.4608,5129.7145,5291.4289,5169.9349,5040.8669,4946.8753,5592.5265,5717.138,
225,3425.838,4141.6404,3535.0259,4452.2837,4074.9145,4564.0916,4137.9651,4751.2783,4570.0133,4535.6657,4950.5614,5030.1892,5030.0699,5198.5277,5083.5325,4943.3765,4850.3494,5515.4301,5627.3133,
233,3366.856,4065.6277,3437.1512,4334.2789,3996.9892,4450.9614,4045.6181,4666.6633,4488.5837,4481.8843,4879.6554,4923.4175,4934.6651,5104.4765,4991.2608,4848.5265,4755.3271,5432.85,5526.3735,
241,3308.7753,3982.7627,3351.0596,4226.6211,3924.5729,4330.0398,3967.6675,4594.8627,4396.1825,4428.8747,4812.7506,4813.888,4845.6837,5013.0801,4886.5482,4754.3452,4660.3235,5344.9494,5416.2169,
249,3247.4723,3884.7518,3271.7361,4122.8789,3853.3596,4194.5133,3896.5012,4525.694,4289.8193,4369.0886,4738.3753,4707.3114,4759.8699,4921.7494,4762.297,4656.9777,4562.4548,5251.1301,5291.3825,
257,3181.4723,3764.0133,3191.9175,4014.5554,3779.5494,4036.4843,3827.5922,4447.8705,4164.6572,4300.0663,4641.8627,4604.8843,4670.0705,4828.0434,4616.9229,4548.2307,4455.4337,5148.9687,5144.9717,
265,3111.0078,3616.0199,3105.9958,3893.4488,3698.4187,3853.2271,3752.7602,4346.3247,4013.4108,4218.0193,4516.7651,4501.7735,4567.2988,4720.8078,4448.053,4420.5813,4334.4699,5033.6247,4968.4476,
273,3035.2771,3443.5488,3008.5669,3753.203,3604.688,3644.7042,3662.0952,4203.9572,3834.9976,4117.8078,4359.5169,4388.5054,4445.2699,4590.9247,4256.4355,4266.1494,4196.8072,4901.0205,4756.6205,
281,2953.9602,3250.9006,2899.1934,3592.4928,3493.1349,3418.3982,3550.4307,4016.4392,3630.5681,3992.3584,4171.0446,4252.1566,4297.7675,4430.1524,4046.9572,4082.7741,4036.1578,4739.2873,4506.288,
289,2862.1536,3048.7807,2783.4886,3414.3958,3355.9735,3179.6789,3415.2572,3787.4639,3411.0072,3835.209,3951.1042,4082.6139,4122.8988,4233.6259,3822.5205,3872.6855,3855.694,4540.7566,4216.7096,
297,2755.197,2846.4,2664.0187,3227.2964,3183.4651,2935.5386,3255.559,3527.6596,3184.297,3645.3602,3697.8169,3876.9584,3918.106,4003.0253,3587.3175,3643.9337,3662.5223,4307.0608,3894.9,
305,2627.112,2653.2753,2542.1789,3036.6331,2966.3072,2687.241,3073.6536,3255.403,2962.1729,3428.0946,3413.359,3644.3301,3685.0289,3745.7633,3355.2277,3408.2711,3465.697,4042.0958,3563.8825,
313,2477.5813,2476.8964,2414.3054,2842.7301,2694.9693,2433.8277,2875.3271,2985.0608,2752.6187,3195.2572,3099.9976,3397.6988,3434.453,3471.1669,3133.4307,3181.6524,3271.7205,3753.3114,3245.8657,
321,2308.9777,2321.2663,2273.3355,2644.5289,2357.6825,2168.7337,2667.8133,2731.0319,2564.0946,2954.7548,2756.7054,3148.2578,3181.438,3196.3723,2927.3223,2974.4801,3079.5765,3446.4042,2961.0289,
329,2124.95,2189.5964,2108.75,2441.2139,1960.7675,1883.5699,2453.6849,2500.6319,2399.5892,2714.5488,2383.8133,2902.6066,2936.1608,2935.1946,2734.6108,2791.012,2880.5886,3128.3898,2724.5482,
337,1926.2446,2070.8843,1908.4223,2234.691,1540.253,1573.7699,2229.6018,2298.6084,2258.8994,2475.7554,1995.909,2662.5578,2706.5331,2695.5066,2547.8054,2631.4289,2660.3301,2806.0994,2533.4693,
345,1722.7669,1956.7536,1662.2867,2025.1404,1144.1247,1256.3446,1988.8524,2127.756,2137.4277,2235.2428,1611.9819,2426.9645,2497.9102,2481.844,2355.6795,2495.9199,2407.3572,2477.2699,2380.8108,
353,1533.094,1842.8331,1371.0404,1812.756,801.4536,959.6325,1726.1307,1992.2253,2027.2271,1985.4006,1252.6265,2194.4831,2311.7325,2297.238,2149.3807,2380.7807,2112.641,2138.109,2261.2163,
361,1369.0355,1731.2259,1063.9892,1608.7084,527.5663,707.8777,1449.4922,1882.3958,1918.2084,1717.9723,944.0753,1965.4392,2145.5801,2139.5307,1918.8373,2281.4675,1773.4211,1790.3765,2170.4645,
