ID,2002,2003,2004,2005,2006,2007,2008,2009,2010,2011,2012,2013,2014,2015,2016,2017,2018,2019,2020,2021
1,,240.7565056,-188.4052045,-39.6040892,259.6394052,-173.2732342,67.9200743,77.0167286,-42.9758364,869.5334572,124.3531599,-111.1022305,234.7565056,552.5594796,116.8810409,603.8717472,757.5594796,211.8773234,89.9070632,-28.3252788
9,,207.7769517,-216.4052045,-130.1375465,160.5762082,-209.267658,-22.8959108,-48.5130112,-88.704461,688.9312268,36.7657993,-173.0743494,167.2881041,460.1449814,37.2527881,409.9758364,713.3921933,94.0762082,31.027881,-31.3605948
17,,175.1412639,-212.3438662,-186.8141264,80.0241636,-225.1654275,-64.7713755,-142.0167286,-122.8921933,509.3847584,-25.4107807,-211.802974,104.8754647,365.9814126,-7.2230483,234.8141264,665.2137546,-4.7750929,-4.5929368,1.3921933
25,,139.9460967,-174.6821561,-212.2750929,28.6449814,-226.4832714,-58.5483271,-203.0855019,-142.9609665,355.5855019,-56.2267658,-228.4535316,47.2360595,282.901487,-14.5892193,92.1784387,613.9702602,-77.9851301,-18.1765799,61.9665428
33,,111.5390335,-101.9535316,-209.0650558,12.7118959,-216.4144981,-7.1747212,-233.1895911,-140.5762082,241.1486989,-52.3401487,-219.6747212,1.2063197,221.5539033,16.2639405,-4.8197026,567.8011152,-119.9349442,-11.9052045,143.9553903
41,,101.0650558,6.8066914,-178.9925651,33.0687732,-191.9535316,84.5947955,-232.669145,-104.3011152,172.7992565,-10.2137546,-181.4739777,-23.1635688,190.133829,83.5223048,-48.2546468,542.2174721,-125.5594796,12.8364312,240.5037175
49,,119.9981413,149.633829,-121.2416357,87.0724907,-145.1542751,209.8977695,-199.0185874,-24.8271375,153.0520446,72.8773234,-109.0371747,-18.5557621,196.936803,182.9312268,-34.6003717,548.0260223,-88.9795539,57.1672862,346.0167286
57,,176.6152416,320.2583643,-36.6449814,170.1486989,-68.5724907,358.9089219,-130.3568773,102.3197026,185.0334572,195.5074349,1.035316,17.2546468,251.1133829,306.1133829,33.9572491,592.7713755,-5.3159851,122.0427509,457.0223048
65,,273.2137546,512.8401487,77.9312268,279.6561338,46.8271375,520.0817844,-25.7750929,282.098513,269.1505576,353.8085502,149.1096654,91.6710037,358.5594796,445.0966543,157.0018587,681.936803,129.3215613,213.4925651,569.8996283
73,,408.8828996,715.2211896,223.1319703,416.7843866,206.964684,686.669145,110.760223,513.1840149,401.7657993,540.0650558,326.8401487,209.0092937,518.7453532,603.4832714,331.0334572,815.7174721,314.5557621,341.4479554,682.8271375
81,,578.0929368,920.2695167,393.3866171,582.6319703,414.9776952,859.3104089,274.704461,787.8122677,577.2434944,741.8420074,531.0111524,372.4126394,727.366171,791.0446097,552.0223048,991.2211896,548.5669145,511.2137546,
89,,772.6765799,1125.3977695,588.7862454,779.5334572,666.1895911,1041.5947955,467.9758364,1093.4962825,788.6171004,951.3327138,757.239777,579.5241636,976.2769517,1015.1988848,813.9349442,1197.535316,821.2843866,723.5055762,
97,,986.5092937,1330.5018587,807.8345725,1006.5130112,952.8568773,1238.2973978,694.2081784,1417.6524164,1031.972119,1162.7713755,1002.5148699,829.9684015,1257.5539033,1277.0910781,1110.4776952,1421.1542751,1123.0669145,978.5167286,
105,,1209.5929368,1534.1672862,1048.9553903,1259.6022305,1261.6933086,1453.4907063,956.5185874,1744.9275093,1299.2156134,1379.8568773,1264.9628253,1117.66171,1560.5613383,1572.6710037,1430.0966543,1655.4405204,1440.2936803,1270.197026,
113,,1434.1747212,1733.0427509,1308.5111524,1528.3197026,1575.5836431,1682.6375465,1251.8643123,2061.0315985,1578.0483271,1605.1784387,1541.9033457,1429.4200743,1867.8773234,1887.7546468,1757.3884758,1893.1728625,1760.1542751,1588.8587361,
121,,1654.4739777,1921.3996283,1577.83829,1793.8866171,1875.4684015,1913.5613383,1573.0780669,2353.9256506,1850.9869888,1837.6765799,1825.7342007,1748.0204461,2157.9479554,2201.4665428,2072.5947955,2124.9237918,2071.2862454,1917.33829,
129,,1864.3959108,2092.739777,1850.760223,2035.0929368,2143.1988848,2131.0799257,1903.1635688,2605.5037175,2098.0130112,2068.5650558,2104.7918216,2050.5018587,2408.1635688,2485.4684015,2353.9609665,2340.8680297,2360.6468401,2231.0929368,
137,,2057.436803,2239.2918216,2117.3011152,2235.1524164,2372.302974,2319.5799257,2220.8234201,2802.7899628,2299.8048327,2283.2007435,2360.7304833,2318.6635688,2610.2193309,2716.7565056,2582.3773234,2531.3531599,2615.7992565,2506.6263941,
145,,2224.1040892,2358.5910781,2366.5966543,2378.4405204,2556.429368,2464.5037175,2503.7063197,2945.6914498,2448.9182156,2471.1412639,2570.197026,2537.436803,2762.7490706,2885.0408922,2752.7081784,2685.0910781,2821.6561338,2729.3215613,
153,,2355.2936803,2446.3104089,2584.7434944,2467.1003717,2690.1375465,2557.1486989,2739.330855,3034.866171,2542.9144981,2622.5427509,2724.260223,2704.2509294,2867.6524164,2989.6412639,2863.7304833,2797.1096654,2969.267658,2890.5947955,
161,,2448.1747212,2498.1933086,2761.2063197,2505.4089219,2774.5074349,2598.5483271,2912.2472119,3072.7936803,2585.7137546,2731.472119,2820.9776952,2817.894052,2929.197026,3032.5892193,2916.3791822,2864.2342007,3058.1486989,2993.9925651,
169,,2500.5390335,2509.9944238,2881.0483271,2503.9423792,2812.9832714,2594.4981413,3016.436803,3068.2342007,2582.1524164,2795.8736059,2863.2360595,2884.0223048,2951.1449814,3021.3420074,2917.4386617,2886.8513011,3093.3141264,3047.6171004,
177,,2514.1710037,2483.7565056,2943.3215613,2471.366171,2808.5241636,2551.9665428,3058.6933086,3032.4144981,2539.8066914,2811.9479554,2856.0520446,2904.972119,2936.1542751,2965.2490706,2876.394052,2865.7434944,3082.5427509,3060.4516729,
185,2274.1747212,2491.9553903,2429.1412639,2949.4256506,2415.1226766,2768.0650558,2480.6003717,3050.2862454,2974.2416357,2470.4795539,2787.8457249,2809.5650558,2885.0873606,2889.1245353,2874.5334572,2804.9460967,2807.8996283,3036.0464684,3039.6561338,
193,2201.7546468,2441.1710037,2353.3401487,2907.2843866,2342.1245353,2700.1412639,2388.6672862,3004.6486989,2899.9033457,2384.739777,2732.9089219,2732.7453532,2830.1208178,2816.4516729,2761.0,2713.2100372,2723.2174721,2963.2583643,2993.4591078,
201,2126.5130112,2369.0613383,2261.8178439,2829.472119,2257.7918216,2610.0,2281.9089219,2931.8420074,2810.1654275,2290.0148699,2655.9479554,2632.7583643,2747.7416357,2722.8159851,2635.4349442,2609.4907063,2622.0037175,2872.2434944,2925.5669145,
209,2045.5724907,2283.2434944,2159.3494424,2725.4628253,2166.6988848,2502.105948,2165.3791822,2838.9349442,2700.6672862,2190.6672862,2563.8420074,2516.7434944,2644.7453532,2611.7825279,2504.9330855,2498.9386617,2513.1171004,2770.1189591,2839.5464684,
217,1962.6728625,2189.5687732,2052.5780669,2603.6877323,2072.8364312,2383.436803,2046.901487,2731.0334572,2574.5408922,2089.8624535,2462.5446097,2391.2583643,2527.8977695,2489.3475836,2374.3605948,2389.4349442,2401.9163569,2660.9237918,2740.7193309,
225,1881.0817844,2093.169145,1947.6301115,2470.9981413,1980.2769517,2259.098513,1932.0223048,2612.9070632,2435.2118959,1990.9089219,2357.7342007,2263.464684,2404.739777,2363.6226766,2246.5408922,2285.4832714,2292.8289963,2548.1449814,2633.9312268,
233,1802.5892193,1997.2434944,1848.3066914,2334.5241636,1889.5855019,2133.1486989,1824.7732342,2486.3698885,2288.0892193,1896.4591078,2252.7249071,2139.5037175,2281.5557621,2240.2416357,2123.6412639,2188.4126394,2187.6152416,2433.7267658,2521.3791822,
241,1729.2286245,1904.8977695,1756.6561338,2198.3531599,1804.2100372,2010.4107807,1727.2249071,2355.9182156,2139.5446097,1808.1003717,2149.6468401,2024.0929368,2162.4349442,2123.2118959,2010.5204461,2095.4832714,2087.267658,2317.8475836,2404.5762082,
249,1661.7490706,1816.7695167,1674.2434944,2066.9312268,1725.1449814,1893.7434944,1641.0111524,2226.1747212,1995.0241636,1727.6728625,2046.2769517,1919.6115242,2050.6598513,2014.8587361,1910.0055762,2007.7249071,1991.5817844,2204.2546468,2284.1319703,
257,1601.2936803,1733.8828996,1601.2490706,1942.295539,1653.7695167,1786.7118959,1567.6096654,2099.8420074,1862.4070632,1655.8252788,1942.3791822,1826.7825279,1947.2472119,1914.7546468,1823.5743494,1921.2769517,1900.4330855,2094.8810409,2162.7527881,
265,1545.7249071,1654.1840149,1536.3420074,1826.563197,1588.6133829,1692.3773234,1506.697026,1978.4962825,1744.9907063,1589.6449814,1838.1375465,1742.9163569,1851.2379182,1821.105948,1751.3141264,1836.7156134,1812.5167286,1990.0297398,2042.3513011,
273,1491.6784387,1573.4479554,1476.8884758,1718.2416357,1525.6226766,1612.2881041,1456.3457249,1859.5724907,1644.5092937,1524.8011152,1733.4758364,1663.1561338,1759.4553903,1730.3401487,1691.4795539,1753.3717472,1724.9219331,1886.9052045,1923.0817844,
281,1433.9907063,1484.5910781,1417.8289963,1613.9795539,1457.8884758,1544.5055762,1413.5817844,1738.8977695,1560.6115242,1454.4776952,1624.0185874,1579.063197,1667.260223,1637.5743494,1642.8624535,1671.5501859,1633.0408922,1778.0836431,1802.2211896,
289,1364.6394052,1377.9758364,1352.8457249,1508.7211896,1375.9665428,1485.3178439,1373.0873606,1608.7825279,1491.5855019,1373.1765799,1503.2695167,1480.6245353,1568.260223,1534.1208178,1601.4405204,1588.5111524,1531.2026022,1652.9628253,1673.7973978,
297,1273.5037175,1242.8457249,1279.1394052,1395.7360595,1267.3401487,1427.704461,1327.704461,1459.7286245,1433.0594796,1275.2546468,1362.2230483,1356.6914498,1455.6412639,1410.2973978,1563.3847584,1501.9423792,1414.5427509,1502.5037175,1529.0092937,
305,1150.7286245,1068.669145,1192.6524164,1266.3178439,1119.6635688,1362.8159851,1268.7453532,1280.8197026,1381.2713755,1159.5204461,1193.5185874,1200.6561338,1326.5148699,1266.4888476,1523.6895911,1407.0055762,1280.697026,1325.1542751,1357.669145,
313,995.3717472,855.527881,1086.5724907,1114.0037175,927.9516729,1279.4275093,1189.2342007,1069.3921933,1339.7286245,1029.1598513,1002.4665428,1032.133829,1189.232342,1113.2992565,1475.929368,1300.3810409,1139.2806691,1130.0111524,1151.5185874,
321,833.5390335,631.8568773,951.9330855,952.6951673,708.4516729,1165.0130112,1083.5594796,841.8066914,1306.302974,886.830855,794.4405204,869.0334572,1063.302974,957.8141264,1412.1022305,1183.7639405,996.0557621,928.0817844,911.7490706,
329,680.6802974,419.4498141,784.6133829,802.2843866,487.0018587,1006.8921933,952.9126394,611.9144981,1276.0966543,738.7843866,590.8996283,720.6245353,956.3178439,804.4572491,1324.8587361,1076.8587361,855.3828996,736.2081784,672.8791822,
337,544.9739777,232.1914498,600.8141264,671.9237918,283.9851301,801.9888476,793.2063197,406.1301115,1241.4033457,597.3587361,403.3327138,590.9981413,866.4498141,652.3810409,1221.0315985,985.3141264,721.6375465,562.2081784,458.0966543,
345,432.3345725,77.2342007,417.6951673,560.7825279,114.2490706,586.7620818,606.704461,238.9814126,1193.1561338,465.6561338,236.4795539,482.3494424,788.8959108,501.4776952,1101.6356877,912.3717472,592.9144981,409.9572491,278.0130112,
353,345.9962825,-42.6858736,241.6784387,460.4126394,-16.9516729,382.5892193,413.3085502,112.8977695,1121.1468401,342.5315985,92.704461,389.9498141,714.9758364,356.8698885,963.5762082,853.5260223,465.6040892,279.1468401,133.8959108,
361,284.4219331,-130.0167286,85.6933086,361.4107807,-111.1933086,205.1765799,233.2174721,22.105948,1015.5780669,228.3791822,-23.3513011,309.3475836,637.6394052,226.2843866,797.6319703,803.3178439,338.2788104,172.6802974,23.0167286,
