ID,2002,2003,2004,2005,2006,2007,2008,2009,2010,2011,2012,2013,2014,2015,2016,2017,2018,2019,2020,2021
1,,785.7575572,903.4266748,441.90625,681.3210784,-57.7267157,491.1358252,721.40625,892.182598,915.6160131,750.7957516,522.3525327,889.3349673,986.3531454,1133.8198529,923.1823938,1012.7769608,674.3886846,684.4973448,1097.5872141
9,,773.1366422,897.7246732,326.3868464,677.3378268,-69.5745507,381.6501225,629.3907271,892.9127859,893.7920752,608.5947712,478.2387663,869.9761029,976.2759395,1121.6666667,848.5776144,1002.7667484,521.1597222,565.2091503,1080.690768
17,,766.7802288,890.6746324,242.995915,738.5373775,-20.8562092,322.715482,567.4505719,901.3474265,865.3218954,468.6395016,469.5447304,880.8476307,971.6276552,1117.7030229,789.0555556,1000.1678922,388.6717729,515.7389706,1077.6448121
25,,767.6989379,891.1149918,199.4397467,850.8082108,90.4540441,331.3163807,559.1550245,920.063317,832.6164216,371.247549,495.2148693,910.1280637,977.9307598,1130.7381536,763.3946078,1009.311683,288.7477533,551.6327614,1088.4936683
33,,781.4803922,905.6531863,215.2111928,964.1781046,254.5984477,409.6580882,610.6444036,955.7743056,801.5996732,338.7242647,572.0194036,954.7604167,999.2158905,1165.2199755,788.404616,1033.2714461,234.9446487,672.9883578,1112.3660131
41,,814.717933,937.9934641,303.1131536,1069.6921977,442.1343954,548.931781,715.0332925,1019.6703431,786.0471814,378.0004085,698.8954248,1027.7561275,1037.9914216,1225.4801879,867.5169526,1075.2973856,243.8055556,861.1705474,1149.0792484
49,,872.2908497,984.3956291,458.6493056,1170.7802288,643.8576389,723.6674837,871.1668709,1102.5659722,809.6687092,488.313317,854.6507353,1123.9652778,1097.151348,1311.752451,968.5498366,1134.877451,323.1954657,1066.1121324,1198.8137255
57,,953.2446895,1038.8229167,658.4965278,1269.5128676,845.7330474,892.2207925,1037.0285948,1187.5022467,874.1631944,650.869281,1027.6100899,1238.3862337,1177.5639297,1422.1795343,1084.0647467,1206.5802696,477.2949346,1274.3000408,1261.3690768
65,,1050.2790033,1096.6082516,848.6094771,1367.8566176,1028.3511029,1049.0763889,1206.6055964,1275.9193219,965.8082108,820.7044526,1208.2994281,1369.9748775,1275.0790441,1552.032067,1212.7851307,1287.963031,693.3031046,1489.8033088,1334.3600899
73,,1155.8492647,1152.0461601,1027.5155229,1462.0855801,1184.8131127,1197.1488971,1380.3899101,1366.3220997,1079.7732843,987.7471405,1387.8284314,1513.3370098,1384.9483252,1688.5165441,1353.4405637,1382.1354167,937.9027778,1711.5919118,1411.2888072
81,,1262.2569444,1200.5406454,1195.1348039,1545.2201797,1316.1135621,1338.2485703,1551.3649918,1456.9307598,1208.377451,1146.4877451,1556.0890523,1664.9977533,1498.8929739,1826.6419526,1497.9162582,1486.3359886,1189.5876225,1939.0825163,
89,,1362.3366013,1240.0138889,1353.4785539,1608.0863971,1421.0776144,1470.6425654,1712.2855392,1542.189951,1343.003268,1297.6094771,1710.8819444,1817.5095997,1603.1658497,1954.6470588,1635.7538807,1592.8415033,1440.9274918,2160.5996732,
97,,1451.1058007,1267.5718954,1502.8316993,1648.3737745,1499.9252451,1587.0855801,1860.5700572,1615.7426471,1474.4084967,1439.5091912,1847.3449755,1964.3118873,1696.6205065,2062.6370507,1763.5357435,1692.3656046,1682.9517974,2360.7365196,
105,,1520.3427288,1279.4162582,1634.6821895,1662.8631536,1551.5488154,1674.9716095,1990.810866,1671.4101307,1591.0735294,1568.5187908,1956.7312092,2093.0055147,1773.964665,2136.7593954,1876.2777778,1775.5839461,1903.4569036,2519.0089869,
113,,1565.1270425,1273.6425654,1747.8604984,1652.7150735,1578.6147876,1736.1466503,2096.8294526,1702.4955065,1686.6223448,1676.5849673,2031.806781,2192.3596814,1833.3263889,2179.4581291,1967.2698121,1837.7269199,2094.2011846,2628.8357843,
121,,1585.2551062,1254.8415033,1831.4881536,1620.1544118,1585.4669118,1768.9232026,2169.473652,1716.7003676,1754.220384,1761.6640114,2064.4656863,2255.6482843,1871.253268,2190.8220997,2025.6149918,1875.2875817,2244.7775735,2688.8192402,
129,,1581.3417075,1227.90625,1882.9585376,1570.1203023,1575.7173203,1772.2279412,2197.9997958,1720.2083333,1789.7446895,1820.0134804,2055.4409722,2274.1517565,1883.8592729,2167.3580474,2046.9189134,1884.9319853,2346.9558824,2700.9732435,
137,,1555.4246324,1196.7406046,1897.1178513,1508.4810049,1551.7020016,1748.2626634,2184.7745098,1717.4470997,1789.4497549,1848.3521242,2010.7622549,2248.5036765,1870.8086193,2111.8878676,2031.7481618,1867.0267565,2395.2254902,2671.1715686,
145,,1513.750817,1163.7318219,1876.5212418,1441.0071487,1515.4705882,1699.0808824,2133.3831699,1712.276348,1756.9225899,1845.9824346,1940.2303922,2185.4403595,1833.846201,2036.3997141,1986.6660539,1829.5502451,2396.1121324,2609.7808415,
153,,1461.4044118,1131.3447712,1828.0588235,1373.0439134,1469.8625408,1632.4360703,2048.7743056,1707.7706291,1699.3752042,1815.0947712,1855.0179739,2097.2087418,1780.0026552,1951.2926879,1921.5843546,1780.9011438,2361.9585376,2528.1678922,
161,,1403.3255719,1100.9652778,1758.8600899,1307.9622141,1419.6693219,1556.2038399,1941.2020016,1706.1897467,1625.8051471,1761.5441176,1764.5212418,1998.4483252,1717.184232,1866.4140114,1845.316585,1728.2216095,2305.221201,2439.1119281,
169,,1341.9863154,1073.3300654,1679.0694444,1248.5051062,1368.4869281,1476.7732843,1823.0990605,1703.2810458,1545.9244281,1693.154616,1676.4475082,1897.6793301,1651.6060049,1788.088031,1766.1683007,1676.8948121,2235.6166258,2351.9270833,
177,,1282.3065768,1049.0606618,1595.7902369,1196.7134395,1319.5326797,1400.1680964,1707.1107026,1681.684232,1466.5835376,1616.6049837,1595.9387255,1803.1254085,1589.3931781,1719.8537582,1690.0898693,1630.688317,2164.0863971,2273.9810049,
185,1031.6335784,1226.0731209,1027.8511029,1515.2426471,1153.217116,1276.0424837,1330.2573529,1600.4464869,1597.8345588,1392.6693219,1539.3839869,1526.097018,1717.6683007,1533.3504902,1662.0831291,1621.0559641,1592.6917892,2097.3016748,2209.6227533,
193,1018.2849265,1176.8525327,1009.3944036,1440.7937092,1117.502451,1239.2095588,1270.1544118,1508.8249592,1500.7418301,1327.4180964,1467.4264706,1468.032067,1644.2622549,1485.0745507,1613.7383578,1561.1411356,1563.8355801,2038.748366,2160.6629902,
201,1005.6960784,1135.4818219,993.4152369,1375.3805147,1087.7673611,1208.6582925,1220.3474265,1432.9191176,1411.7888072,1272.1750408,1404.472018,1420.0110294,1582.1997549,1443.2089461,1573.3796977,1511.6160131,1542.310049,1988.9597631,2124.4248366,
209,994.0594363,1102.1911765,978.8096405,1320.1474673,1063.6864788,1183.1015114,1180.7489788,1373.3343546,1338.443219,1227.3841912,1352.0222631,1379.6074346,1530.4848856,1405.4234069,1537.8792892,1472.0026552,1525.8768382,1947.5365605,2097.1221405,
217,983.0310458,1075.1940359,965.8525327,1274.8278186,1044.1474673,1161.2881944,1150.0676062,1327.4930556,1279.9281046,1191.1323529,1308.9726307,1343.2040441,1485.8688725,1370.7544935,1505.345384,1441.0038807,1512.1497141,1912.4272876,2073.2955474,
225,973.1928105,1052.594567,954.7330474,1237.7951389,1027.9270833,1141.9428105,1126.5894608,1292.3476307,1233.4930556,1162.4223856,1273.8688725,1310.6413399,1446.5637255,1338.5422794,1474.6272467,1415.9644608,1497.6286765,1879.4587418,2047.2546977,
233,964.4773284,1032.3480392,944.5439134,1207.3796977,1014.7207925,1123.5042892,1106.8880719,1263.6613562,1194.0261438,1138.7949346,1244.2028186,1281.6488971,1409.3363971,1307.4501634,1443.9156454,1393.5984477,1479.9495507,1844.3654003,2011.9636438,
241,956.6350082,1014.0451389,935.6872958,1181.6860703,1004.9387255,1105.4266748,1088.7722631,1237.3511029,1159.8488562,1119.2256944,1217.9387255,1256.4665033,1373.1082516,1276.8897059,1412.2022059,1370.5504493,1457.347018,1804.4138072,1964.6525735,
249,948.941585,997.161969,927.8233252,1158.9187092,999.0812908,1087.9313725,1070.4971405,1210.9863154,1129.3819444,1102.3892974,1192.0580065,1234.2522467,1337.438317,1246.4830474,1378.4916258,1346.2481618,1428.2218137,1758.6674837,1905.0551471,
257,941.7295752,981.8968546,921.217933,1137.7896242,998.0510621,1071.6337827,1052.5868056,1184.003268,1102.1013072,1088.3948121,1166.9189134,1215.3184232,1302.9064542,1217.6811683,1343.0373775,1319.8265931,1392.0759804,1707.6964869,1835.5044935,
265,935.5992647,967.6560458,916.2238562,1118.7665441,1001.8500817,1057.1133578,1035.435049,1156.1213235,1077.1154003,1076.0216503,1143.0757761,1198.8856209,1269.2636846,1191.2951389,1306.0870098,1292.3856209,1351.816585,1653.6405229,1760.3155637,
273,930.6078431,954.5676062,913.2951389,1101.3243464,1009.3907271,1045.400531,1020.401348,1127.9217729,1055.2818627,1066.0310458,1121.724469,1185.5294118,1237.2230392,1168.9140114,1268.2028186,1264.4301471,1310.5479984,1597.9068627,1684.7428513,
281,926.1660539,943.0046977,912.904616,1085.8639706,1017.8106618,1037.0696487,1007.9566993,1100.0573938,1036.1791258,1058.1466503,1103.4099265,1176.3400735,1206.660335,1151.9667075,1231.6699346,1237.7598039,1271.9783497,1542.4462827,1613.9834559,
289,922.4532271,933.6593137,916.0631127,1072.3535539,1023.808415,1031.8721405,997.933415,1073.6760621,1020.3225082,1051.9681373,1088.5416667,1170.8784722,1177.6113154,1141.7093546,1198.4477124,1212.8059641,1239.1072304,1489.753268,1550.786969,
297,919.4722222,926.440768,922.3944036,1060.6789216,1021.9564951,1029.9344363,990.1868873,1049.4787582,1006.9979575,1046.345384,1076.3997141,1166.1439951,1149.6830065,1138.8159722,1170.0855801,1190.5437092,1213.8956291,1441.0030637,1496.9417892,
305,916.559232,921.4758987,929.6107026,1049.7585784,1003.5104167,1029.0065359,984.7877859,1027.3833742,995.8837827,1042.533701,1065.090482,1155.6286765,1122.6615605,1141.5067402,1146.8419118,1169.3039216,1194.8537582,1393.8545752,1452.6993464,
313,914.2361111,917.7642974,934.1950572,1037.8406863,956.4726307,1025.2741013,981.3723448,1006.9861111,986.590482,1039.6531863,1050.9101307,1141.7747141,1097.6838235,1144.8051471,1128.3778595,1149.2642974,1179.3668301,1346.1783088,1416.6339869,
321,911.9285131,914.7111928,930.9485294,1021.0829248,865.032884,1012.1715686,977.4209559,986.9652778,977.0863971,1035.8374183,1027.9172794,1124.8080065,1075.7647059,1142.2324346,1113.2577614,1128.9268791,1162.1683007,1293.3229167,1381.2036356,
329,907.6278595,910.9863154,912.1672794,995.3506944,713.7977941,981.1227533,969.6278595,966.0386029,967.3964461,1028.5933415,988.0142974,1104.152982,1057.1995507,1139.0412582,1099.5373775,1107.528799,1134.7109886,1234.0061275,1336.2939134,
337,897.2479575,907.8664216,873.1425654,957.6117239,508.9830474,926.567402,953.058415,944.0471814,958.5104167,1013.4180964,925.1088644,1075.7667484,1040.5988562,1138.3496732,1084.0571895,1085.7216095,1092.0294118,1165.5759804,1285.6517565,
345,875.716299,905.6701389,808.1405229,904.1098856,306.2107843,845.932598,923.3366013,924.158701,950.5580065,985.5234886,836.3492647,1035.8384395,1025.7761438,1141.7896242,1063.0504493,1065.630719,1031.4080882,1081.8190359,1232.3267974,
353,845.5684232,904.7759395,709.4027778,830.0471814,135.9397467,738.6168301,874.4562908,909.310866,942.4511846,937.7914624,722.347018,986.3020833,1011.7022059,1146.0367647,1031.4995915,1046.0635212,945.6196895,975.000817,1180.6636029,
361,811.1113154,905.3903186,577.0030637,741.3284314,11.310866,615.7610294,807.0322712,898.6535948,931.6368464,862.1860703,608.1897467,933.814134,998.6074346,1143.7526552,985.9758987,1028.0696487,827.9973448,840.3684641,1133.4979575,
