ID,2002,2003,2004,2005,2006,2007,2008,2009,2010,2011,2012,2013,2014,2015,2016,2017,2018,2019,2020,2021
1,,2042.1,1914.4,2917.9,1470.2,2364.8,1974.2,2187.1,2091.3,2427.0,2756.7,2795.8,2767.2,2605.9,3580.0,3211.2,3295.8,3402.8,3767.2,4042.6
9,,2219.6,2105.2,3047.5,1586.3,2551.4,2053.5,2346.3,2217.0,2618.7,2798.3,2983.6,2786.7,2686.1,3579.8,3358.8,3419.0,3525.4,3896.8,3996.9
17,,2418.0,2319.9,3170.0,1730.1,2763.0,2137.9,2527.2,2371.5,2836.6,2835.1,3197.0,2839.0,2775.3,3568.6,3486.0,3582.2,3671.3,4028.8,3937.3
25,,2630.8,2544.3,3281.4,1892.9,2993.7,2227.2,2722.2,2552.8,3066.0,2867.9,3423.3,2931.6,2867.0,3555.9,3590.7,3783.5,3840.9,4167.5,3880.2
33,,2839.9,2762.2,3390.0,2061.4,3228.3,2315.7,2927.3,2747.1,3278.4,2907.4,3636.6,3061.6,2967.5,3554.4,3679.0,4005.1,4018.8,4315.2,3827.8
41,,3044.6,2951.1,3499.2,2231.0,3447.6,2397.3,3140.0,2933.6,3455.8,2966.4,3831.9,3218.5,3082.2,3570.9,3753.5,4234.1,4185.1,4466.7,3779.4
49,,3237.9,3089.9,3599.2,2394.4,3617.3,2458.6,3348.1,3079.9,3587.3,3044.8,4001.0,3393.9,3205.7,3601.2,3805.0,4438.8,4321.2,4600.9,3726.6
57,,3402.6,3157.8,3670.4,2543.3,3711.7,2491.7,3533.9,3141.1,3653.6,3138.8,4125.8,3569.7,3323.3,3635.9,3812.7,4566.2,4394.0,4688.6,3677.6
65,,3510.2,3146.5,3695.7,2662.2,3715.3,2490.8,3668.7,3115.5,3646.4,3233.4,4203.7,3721.2,3425.8,3653.9,3753.9,4552.1,4370.2,4701.4,3633.0
73,,3531.8,3041.0,3657.7,2739.0,3613.2,2455.0,3739.5,3016.4,3574.1,3309.2,4221.2,3812.8,3496.7,3633.8,3628.5,4409.6,4265.9,4631.9,3587.9
81,,3463.8,2857.3,3540.6,2758.9,3419.9,2381.9,3719.0,2858.0,3441.9,3342.1,4151.2,3815.7,3510.7,3561.7,3456.3,4156.4,4095.5,4496.7,
89,,3301.0,2614.3,3336.8,2700.1,3164.2,2276.2,3612.0,2660.1,3257.4,3317.0,3975.0,3734.8,3441.8,3438.5,3249.7,3831.5,3875.9,4299.4,
97,,3052.5,2336.2,3066.5,2564.7,2875.1,2150.0,3433.2,2441.1,3035.4,3218.7,3724.8,3583.2,3305.5,3262.3,3021.7,3480.8,3618.8,4050.2,
105,,2758.9,2053.4,2765.1,2369.6,2577.9,2011.0,3201.7,2223.7,2787.2,3047.4,3422.4,3367.9,3121.9,3042.4,2788.7,3140.0,3338.4,3767.8,
113,,2452.5,1791.0,2460.3,2149.6,2292.7,1865.1,2935.5,2022.4,2533.8,2825.7,3100.7,3111.0,2920.1,2806.0,2570.7,2831.9,3058.5,3470.7,
121,,2154.9,1564.6,2172.7,1929.8,2038.3,1724.6,2644.6,1842.7,2291.2,2584.4,2792.1,2844.0,2723.5,2580.5,2378.2,2573.6,2798.0,3182.7,
129,,1886.9,1383.2,1920.6,1730.1,1824.3,1600.1,2361.7,1690.4,2074.0,2353.3,2517.5,2589.4,2547.4,2382.9,2220.1,2372.0,2568.0,2920.0,
137,,1662.1,1250.1,1712.1,1561.4,1654.1,1498.7,2107.5,1571.4,1890.3,2151.9,2291.1,2363.5,2398.8,2222.9,2098.2,2226.3,2377.0,2694.4,
145,,1487.0,1162.3,1549.8,1429.3,1527.5,1422.7,1892.1,1486.2,1746.0,1989.4,2116.6,2174.5,2281.1,2103.3,2012.2,2131.4,2228.0,2514.1,
153,,1362.9,1113.1,1430.9,1333.2,1440.3,1370.2,1721.7,1431.3,1646.0,1870.4,1992.7,2027.2,2194.1,2023.1,1957.9,2075.7,2120.2,2381.3,
161,,1287.6,1095.5,1350.9,1272.4,1386.1,1339.0,1595.1,1404.6,1589.7,1790.6,1914.1,1922.3,2135.9,1978.7,1929.6,2046.3,2054.5,2293.1,
169,,1256.1,1104.5,1304.0,1241.8,1357.4,1325.1,1507.4,1404.9,1573.6,1741.6,1872.2,1856.8,2105.9,1962.1,1923.6,2036.5,2027.5,2242.9,
177,,1264.1,1135.0,1283.4,1236.0,1350.7,1323.1,1455.5,1434.2,1591.9,1718.5,1857.6,1827.0,2099.4,1963.6,1937.2,2039.3,2034.0,2220.1,
185,1173.0,1304.8,1182.3,1285.3,1248.1,1357.9,1332.2,1433.7,1492.4,1640.5,1718.0,1866.1,1826.8,2110.7,1976.3,1964.3,2051.6,2066.2,2215.0,
193,1263.1,1371.0,1242.0,1302.7,1272.8,1375.8,1354.3,1438.3,1572.2,1711.5,1737.1,1891.2,1850.3,2132.0,1997.2,2000.4,2071.8,2117.6,2223.7,
201,1353.7,1455.7,1307.8,1329.9,1306.6,1399.7,1389.3,1462.7,1663.1,1797.7,1770.0,1928.0,1889.2,2158.9,2023.2,2037.7,2097.3,2184.2,2240.8,
209,1444.9,1550.9,1371.7,1364.7,1345.4,1424.8,1435.0,1499.2,1749.0,1886.1,1809.5,1968.7,1933.7,2183.8,2052.2,2068.9,2122.9,2257.8,2260.9,
217,1532.9,1646.9,1428.4,1402.0,1383.6,1449.7,1485.1,1545.5,1821.7,1964.9,1857.7,2006.2,1976.0,2209.5,2078.8,2086.7,2146.0,2324.6,2276.1,
225,1611.4,1733.7,1468.8,1438.9,1417.2,1471.5,1533.3,1597.4,1870.3,2027.8,1911.3,2029.0,2010.6,2236.6,2101.1,2090.7,2167.2,2373.0,2286.8,
233,1672.3,1800.5,1488.3,1472.4,1440.0,1487.6,1570.3,1652.7,1889.1,2070.4,1968.3,2032.5,2038.0,2262.3,2115.0,2083.8,2188.6,2397.1,2291.8,
241,1706.6,1838.5,1492.1,1496.9,1446.9,1496.6,1590.2,1706.1,1886.6,2096.5,2024.1,2026.0,2060.6,2286.7,2120.3,2071.4,2208.4,2396.0,2294.1,
249,1716.9,1846.2,1483.1,1510.2,1436.2,1494.2,1592.4,1750.5,1872.0,2105.5,2070.1,2017.1,2079.3,2314.7,2117.3,2061.9,2227.0,2380.4,2294.9,
257,1699.7,1823.6,1464.2,1512.4,1413.3,1482.6,1580.3,1776.8,1852.7,2104.2,2095.1,2015.4,2092.0,2352.8,2110.6,2059.0,2245.9,2361.6,2297.5,
265,1659.4,1775.9,1449.1,1502.6,1386.0,1470.0,1556.7,1787.0,1834.0,2096.8,2093.3,2026.7,2105.0,2406.1,2107.2,2068.6,2269.3,2352.0,2309.8,
273,1606.3,1711.8,1448.1,1482.5,1360.8,1462.0,1524.2,1779.5,1817.8,2091.8,2076.3,2056.6,2122.4,2481.1,2112.0,2094.2,2301.3,2359.7,2341.0,
281,1549.7,1638.8,1469.3,1456.6,1344.8,1461.8,1491.2,1763.3,1808.6,2097.1,2055.5,2106.4,2148.5,2578.2,2127.6,2140.2,2343.3,2387.0,2401.3,
289,1496.9,1565.2,1518.3,1428.1,1343.7,1469.0,1460.5,1743.4,1810.0,2115.1,2040.4,2176.4,2184.4,2693.3,2152.8,2208.9,2394.0,2439.0,2496.5,
297,1452.8,1499.6,1596.2,1398.8,1361.0,1484.7,1440.3,1727.5,1823.5,2146.3,2036.9,2262.0,2227.2,2817.4,2187.5,2303.5,2460.0,2517.3,2630.3,
305,1420.1,1447.9,1704.4,1367.6,1399.6,1510.3,1438.1,1720.2,1845.5,2190.3,2047.1,2361.2,2274.2,2939.7,2234.5,2419.3,2541.5,2623.3,2803.1,
313,1406.4,1415.3,1840.8,1338.0,1460.5,1547.6,1460.4,1724.5,1869.7,2247.8,2075.8,2466.1,2317.8,3043.5,2299.5,2550.7,2640.3,2754.4,3011.0,
321,1416.7,1403.8,2000.4,1312.5,1544.0,1596.4,1510.7,1738.6,1901.4,2318.5,2127.4,2568.8,2350.8,3137.6,2382.7,2680.4,2750.2,2906.2,3243.5,
329,1455.2,1416.8,2172.4,1296.2,1649.2,1653.4,1589.5,1765.2,1942.2,2402.5,2203.1,2661.3,2374.9,3232.8,2482.4,2804.6,2863.6,3067.4,3483.7,
337,1523.6,1457.5,2340.9,1291.0,1771.9,1713.3,1690.0,1802.8,1990.8,2492.7,2299.7,2731.0,2400.3,3330.3,2595.7,2922.7,2971.1,3224.8,3708.3,
345,1621.1,1526.4,2502.4,1300.9,1906.8,1774.4,1805.7,1852.4,2058.3,2579.2,2408.3,2773.5,2434.4,3424.3,2726.4,3028.5,3079.0,3371.0,3887.5,
353,1743.4,1624.6,2647.8,1329.7,2050.0,1835.0,1921.6,1913.6,2149.1,2649.3,2515.7,2780.1,2480.7,3504.0,2877.0,3120.5,3186.3,3507.5,4006.0,
361,1885.6,1753.8,2785.1,1384.9,2201.0,1901.8,2047.7,1991.3,2272.0,2709.4,2640.8,2771.3,2538.2,3554.5,3043.4,3202.4,3292.2,3638.8,4053.2,
