ID,2002,2003,2004,2005,2006,2007,2008,2009,2010,2011,2012,2013,2014,2015,2016,2017,2018,2019,2020,2021
1,,1799.545455,2795.030303,2640.272727,1126.121212,1915.666667,1330.060606,1501.69697,1945.393939,1371.272727,1876.939394,1651.272727,1672.484848,1804.545455,2331.151515,2007.333333,1576.454545,2282.939394,1672.757576,1854.666667
9,,1899.666667,2845.818182,2667.30303,1227.575758,1985.636364,1162.272727,1642.454545,1984.272727,1408.212121,1807.212121,1775.242424,1639.727273,1912.666667,2396.333333,2095.69697,1604.484848,2409.909091,1734.393939,1899.181818
17,,2029.424242,2906.060606,2688.818182,1429.757576,2090.30303,1062.151515,1819.878788,2050.545455,1481.484848,1703.272727,1962.030303,1605.242424,2062.636364,2494.757576,2163.454545,1671.181818,2536.727273,1821.545455,1968.30303
25,,2197.212121,2987.666667,2710.818182,1670.757576,2228.545455,1077.878788,2040.30303,2145.151515,1577.030303,1610.242424,2197.272727,1597.121212,2249.848485,2640.939394,2196.727273,1801.212121,2670.878788,1945.818182,2083.575758
33,,2410.060606,3092.909091,2779.424242,1936.909091,2401.242424,1216.30303,2299.575758,2295.909091,1694.030303,1589.151515,2468.969697,1687.121212,2478.636364,2837.0,2249.121212,2014.30303,2838.636364,2122.909091,2260.333333
41,,2682.727273,3218.878788,2945.69697,2232.454545,2606.393939,1439.878788,2587.30303,2530.272727,1822.424242,1678.636364,2767.787879,1898.393939,2758.484848,3084.363636,2381.181818,2321.939394,3058.545455,2372.575758,2497.606061
49,,3023.787879,3359.363636,3203.939394,2552.909091,2878.666667,1659.939394,2928.030303,2873.424242,1952.212121,1849.393939,3092.242424,2204.242424,3079.454545,3388.939394,2597.909091,2721.787879,3338.454545,2703.848485,2776.030303
57,,3423.363636,3495.606061,3552.69697,2888.727273,3253.030303,1879.060606,3336.454545,3290.454545,2073.30303,2058.484848,3434.575758,2581.484848,3398.090909,3737.848485,2909.575758,3185.909091,3698.818182,3112.69697,3057.878788
65,,3887.757576,3656.181818,3970.909091,3253.848485,3675.545455,2105.030303,3801.121212,3768.969697,2216.757576,2308.818182,3790.848485,3012.606061,3725.090909,4115.121212,3302.060606,3678.181818,4124.30303,3587.969697,3324.060606
73,,4407.969697,3849.515152,4395.969697,3642.727273,4104.0,2362.69697,4303.151515,4279.909091,2402.484848,2603.636364,4111.909091,3471.848485,4064.333333,4482.909091,3724.848485,4133.515152,4572.545455,4094.69697,3574.030303
81,,4945.575758,4071.181818,4712.969697,4018.909091,4479.030303,2657.636364,4795.333333,4773.757576,2629.181818,2931.515152,4386.030303,3945.727273,4398.090909,4778.606061,4120.848485,4516.181818,4988.424242,4584.878788,
89,,5412.787879,4300.939394,4931.242424,4319.212121,4709.515152,2966.636364,5226.484848,5176.545455,2870.454545,3263.969697,4601.69697,4417.363636,4689.393939,4964.454545,4388.363636,4782.212121,5326.484848,4984.606061,
97,,5778.030303,4498.727273,5058.666667,4460.181818,4772.0,3230.272727,5527.272727,5416.848485,3084.69697,3572.575758,4740.636364,4839.757576,4892.484848,4992.818182,4541.30303,4911.69697,5527.909091,5268.878788,
105,,5986.090909,4625.363636,5062.030303,4446.606061,4621.515152,3386.848485,5676.757576,5404.515152,3207.636364,3822.818182,4784.545455,5126.181818,4944.333333,4824.484848,4590.242424,4904.818182,5515.181818,5413.818182,
113,,5999.909091,4647.515152,4946.454545,4305.060606,4281.333333,3417.909091,5654.30303,5129.878788,3232.030303,3988.727273,4710.181818,5184.060606,4780.636364,4533.757576,4521.939394,4783.969697,5324.454545,5410.575758,
121,,5802.424242,4530.818182,4686.121212,4057.757576,3837.454545,3313.393939,5435.878788,4679.0,3152.242424,4023.393939,4516.636364,5033.30303,4472.363636,4164.606061,4330.090909,4567.121212,5003.424242,5266.030303,
129,,5390.393939,4297.242424,4305.484848,3737.272727,3374.69697,3094.878788,5051.090909,4156.515152,2981.606061,3922.242424,4215.121212,4690.30303,4085.666667,3748.939394,4035.848485,4258.060606,4621.515152,4981.030303,
137,,4801.909091,3970.787879,3863.181818,3346.69697,2952.090909,2831.393939,4538.727273,3637.363636,2768.030303,3704.0,3829.757576,4243.333333,3687.484848,3349.272727,3690.818182,3871.636364,4217.909091,4590.666667,
145,,4159.939394,3612.121212,3420.666667,2961.454545,2601.424242,2566.69697,3999.212121,3189.121212,2544.272727,3404.484848,3449.212121,3779.727273,3335.242424,3009.545455,3360.060606,3475.363636,3806.727273,4146.090909,
153,,3561.757576,3275.060606,3029.060606,2626.484848,2340.545455,2333.909091,3486.545455,2835.878788,2336.212121,3100.515152,3125.69697,3349.0,3052.0,2741.909091,3078.272727,3116.151515,3437.484848,3714.939394,
161,,3074.121212,2995.484848,2711.121212,2365.909091,2167.424242,2143.727273,3042.363636,2582.393939,2154.939394,2836.424242,2878.060606,2992.121212,2844.333333,2549.393939,2854.666667,2821.848485,3133.484848,3348.242424,
169,,2713.757576,2785.575758,2482.787879,2181.060606,2069.424242,1999.151515,2689.575758,2419.969697,2008.030303,2624.757576,2704.151515,2724.545455,2709.787879,2426.363636,2682.060606,2595.909091,2901.666667,3070.272727,
177,,2479.787879,2649.121212,2340.060606,2061.545455,2024.424242,1898.121212,2435.151515,2327.575758,1895.69697,2468.727273,2588.69697,2547.242424,2639.212121,2355.393939,2553.484848,2435.909091,2743.909091,2881.121212,
185,1728.848485,2350.545455,2571.636364,2272.363636,1988.424242,2007.666667,1826.666667,2271.272727,2274.242424,1811.424242,2358.30303,2521.272727,2440.666667,2612.0,2313.69697,2459.424242,2328.151515,2650.727273,2765.060606,
193,1746.969697,2296.545455,2531.515152,2263.424242,1948.181818,2005.454545,1776.545455,2182.393939,2256.636364,1756.69697,2289.030303,2484.909091,2384.090909,2603.181818,2294.333333,2386.30303,2259.515152,2601.69697,2698.909091,
201,1761.757576,2285.757576,2501.424242,2291.484848,1925.69697,2000.272727,1731.939394,2144.969697,2265.606061,1724.909091,2253.060606,2459.272727,2348.939394,2597.666667,2281.69697,2323.787879,2210.575758,2570.909091,2661.636364,
209,1773.333333,2298.090909,2466.848485,2338.090909,1908.787879,1987.545455,1687.939394,2138.545455,2289.727273,1706.969697,2238.424242,2433.212121,2328.363636,2582.636364,2268.545455,2270.545455,2176.515152,2548.69697,2640.454545,
217,1778.212121,2311.878788,2422.515152,2376.393939,1881.636364,1960.121212,1636.909091,2144.515152,2309.878788,1694.69697,2227.424242,2392.939394,2313.757576,2545.242424,2245.121212,2225.878788,2147.69697,2528.121212,2618.545455,
225,1773.121212,2318.181818,2372.454545,2390.393939,1846.242424,1913.393939,1585.151515,2148.515152,2316.666667,1685.515152,2212.727273,2335.454545,2295.484848,2494.393939,2209.575758,2188.727273,2125.393939,2502.727273,2587.151515,
233,1753.363636,2306.212121,2314.363636,2375.333333,1798.969697,1850.666667,1538.0,2133.818182,2298.333333,1670.545455,2183.909091,2261.30303,2259.121212,2428.333333,2159.484848,2157.848485,2102.818182,2459.242424,2530.69697,
241,1725.545455,2278.151515,2256.666667,2332.606061,1748.151515,1777.454545,1500.787879,2093.727273,2252.666667,1646.0,2139.69697,2176.818182,2199.848485,2347.818182,2096.69697,2125.363636,2069.636364,2397.727273,2451.575758,
249,1692.606061,2230.030303,2192.878788,2264.969697,1696.515152,1701.515152,1469.272727,2037.212121,2176.30303,1614.272727,2078.424242,2088.727273,2115.69697,2255.818182,2015.424242,2083.090909,2019.0,2317.242424,2357.393939,
257,1656.484848,2175.333333,2126.454545,2177.878788,1648.666667,1630.272727,1445.060606,1970.575758,2086.333333,1586.030303,2002.484848,2005.69697,2023.393939,2173.484848,1925.0,2026.0,1963.393939,2231.848485,2252.060606,
265,1620.212121,2122.30303,2058.69697,2079.272727,1611.727273,1566.515152,1426.848485,1903.727273,1990.242424,1563.969697,1920.848485,1928.363636,1934.666667,2109.393939,1833.242424,1956.333333,1915.727273,2150.333333,2142.878788,
273,1587.30303,2076.181818,1999.242424,1979.515152,1593.727273,1513.757576,1416.818182,1841.969697,1896.939394,1555.363636,1848.454545,1864.393939,1860.757576,2070.909091,1748.939394,1878.30303,1887.242424,2080.333333,2039.878788,
281,1564.727273,2035.424242,1951.424242,1888.181818,1597.151515,1472.969697,1412.090909,1791.242424,1809.181818,1560.090909,1792.151515,1813.666667,1805.30303,2054.69697,1677.666667,1797.454545,1878.212121,2017.363636,1948.333333,
289,1555.181818,2009.878788,1925.363636,1806.545455,1621.0,1445.333333,1407.757576,1754.090909,1733.212121,1573.878788,1755.969697,1778.393939,1765.484848,2051.272727,1616.181818,1720.909091,1886.515152,1958.787879,1874.090909,
297,1555.424242,2003.545455,1927.393939,1740.060606,1655.909091,1428.606061,1392.969697,1731.545455,1666.181818,1587.060606,1738.060606,1753.0,1733.787879,2061.727273,1563.545455,1657.121212,1915.060606,1899.878788,1821.090909,
305,1557.69697,2022.757576,1961.393939,1685.484848,1700.848485,1420.272727,1368.636364,1727.909091,1604.363636,1614.454545,1732.333333,1728.939394,1706.636364,2075.69697,1521.363636,1614.484848,1957.818182,1834.545455,1789.787879,
313,1553.242424,2066.878788,2026.393939,1634.181818,1748.484848,1428.69697,1332.939394,1737.606061,1543.0,1663.454545,1734.575758,1713.575758,1681.090909,2085.060606,1501.0,1589.515152,1992.848485,1765.090909,1773.969697,
321,1533.181818,2137.515152,2110.30303,1580.424242,1782.515152,1458.151515,1290.363636,1762.878788,1486.060606,1731.424242,1739.575758,1714.515152,1664.878788,2095.69697,1509.030303,1569.363636,2002.787879,1699.393939,1756.181818,
329,1505.636364,2230.484848,2208.909091,1513.393939,1801.181818,1503.818182,1257.69697,1798.909091,1437.393939,1797.484848,1740.121212,1734.212121,1657.090909,2113.030303,1549.787879,1557.575758,1985.787879,1647.969697,1748.181818,
337,1497.181818,2348.060606,2316.969697,1433.212121,1817.515152,1549.333333,1247.151515,1834.515152,1399.272727,1848.0,1731.787879,1763.515152,1658.575758,2146.424242,1612.848485,1550.939394,1977.636364,1612.939394,1764.363636,
345,1549.909091,2480.454545,2425.575758,1338.151515,1834.060606,1570.424242,1267.0,1877.151515,1373.454545,1879.69697,1712.393939,1780.393939,1671.878788,2188.242424,1691.727273,1550.727273,1998.757576,1596.69697,1796.69697,
353,1635.030303,2619.636364,2515.727273,1228.242424,1850.545455,1549.909091,1317.727273,1909.121212,1359.787879,1900.939394,1672.909091,1771.909091,1695.727273,2234.30303,1789.666667,1558.030303,2059.575758,1603.0,1822.757576,
361,1717.636364,2729.575758,2587.060606,1135.606061,1872.909091,1466.0,1394.939394,1925.727273,1357.212121,1904.818182,1623.060606,1721.636364,1737.818182,2281.545455,1900.939394,1564.575758,2158.787879,1630.212121,1839.060606,
