ID,2002,2003,2004,2005,2006,2007,2008,2009,2010,2011,2012,2013,2014,2015,2016,2017,2018,2019,2020,2021
1,,1369.356132,1316.740566,1568.714623,1313.891509,1758.139151,1430.03066,1482.903302,1606.320755,1301.983491,1397.349057,1676.636792,1877.992925,1583.561321,2212.278302,1733.058962,1508.372642,1731.353774,1948.014151,1762.707547
9,,1380.323113,1355.542453,1595.771226,1339.764151,1809.794811,1425.806604,1551.808962,1677.283019,1325.403302,1413.681604,1708.264151,1922.254717,1600.625,2273.686321,1796.70283,1536.349057,1822.726415,1963.625,1760.931604
17,,1410.207547,1399.103774,1625.714623,1397.933962,1920.601415,1397.07783,1638.193396,1783.537736,1368.21934,1445.714623,1774.110849,1989.481132,1642.474057,2356.976415,1883.014151,1591.481132,1944.063679,2026.632075,1792.009434
25,,1450.662736,1450.285377,1677.981132,1497.042453,2087.426887,1370.278302,1740.936321,1917.516509,1438.403302,1496.636792,1893.509434,2078.65566,1720.167453,2464.650943,1994.0,1688.490566,2089.507075,2160.32783,1868.84434
33,,1522.110849,1526.320755,1768.70283,1639.132075,2307.976415,1372.115566,1871.25,2087.792453,1540.858491,1552.209906,2068.198113,2178.841981,1855.400943,2639.823113,2142.492925,1841.875,2260.509434,2371.035377,2003.778302
41,,1640.768868,1637.028302,1891.589623,1817.610849,2562.705189,1421.964623,2045.820755,2296.120283,1675.391509,1602.351415,2295.278302,2304.615566,2064.957547,2912.801887,2339.540094,2059.851415,2456.917453,2657.188679,2202.910377
49,,1817.466981,1786.57783,2053.242925,2015.504717,2841.988208,1516.221698,2277.549528,2546.745283,1846.429245,1658.492925,2558.113208,2486.884434,2353.570755,3287.153302,2597.643868,2334.412736,2692.860849,3017.007075,2462.933962
57,,2048.707547,1967.537736,2257.429245,2242.757075,3146.198113,1656.268868,2563.740566,2809.148585,2056.45283,1748.627358,2847.554245,2732.985849,2697.634434,3734.870283,2920.521226,2640.646226,2987.733491,3419.804245,2757.525943
65,,2322.650943,2164.122642,2494.504717,2506.490566,3469.188679,1835.120283,2900.200472,3073.127358,2308.349057,1895.209906,3160.726415,3028.872642,3084.167453,4176.018868,3294.629717,2964.351415,3337.061321,3872.615566,3070.834906
73,,2608.943396,2359.613208,2748.556604,2786.299528,3776.790094,2039.858491,3278.544811,3309.936321,2590.101415,2112.356132,3463.306604,3333.426887,3473.07783,4544.964623,3675.898585,3275.851415,3707.860849,4358.966981,3400.853774
81,,2869.339623,2519.818396,2995.632075,3052.165094,4005.415094,2252.875,3670.568396,3491.259434,2873.179245,2385.625,3697.294811,3635.455189,3789.820755,4811.610849,3977.148585,3541.79717,4071.632075,4837.912736,
89,,3065.959906,2623.84434,3220.205189,3240.25,4083.110849,2453.462264,4012.516509,3588.132075,3128.5,2679.856132,3822.79717,3894.846698,3942.221698,4927.620283,4152.245283,3711.320755,4391.813679,5224.063679,
97,,3179.207547,2647.044811,3382.768868,3309.056604,4017.79717,2611.007075,4217.5,3588.924528,3303.898585,2933.971698,3835.57783,4050.584906,3938.856132,4838.106132,4179.573113,3776.450472,4615.349057,5435.606132,
105,,3178.936321,2573.103774,3424.308962,3266.964623,3822.688679,2703.441038,4247.412736,3483.193396,3344.136792,3122.273585,3712.709906,4066.445755,3801.551887,4570.629717,4052.007075,3723.443396,4654.337264,5432.167453,
113,,3063.584906,2412.353774,3336.254717,3126.53066,3527.507075,2712.339623,4087.181604,3272.025943,3239.84434,3203.544811,3472.233491,3941.948113,3553.783019,4167.59434,3796.995283,3557.523585,4513.216981,5208.712264,
121,,2860.53066,2206.20283,3135.992925,2904.528302,3180.950472,2628.117925,3781.945755,2961.207547,3016.584906,3167.301887,3159.818396,3704.351415,3244.035377,3679.563679,3447.462264,3317.733491,4224.903302,4831.521226,
129,,2609.332547,1993.254717,2878.658019,2630.316038,2825.370283,2456.596698,3398.337264,2617.056604,2731.995283,3024.311321,2824.764151,3388.193396,2911.075472,3189.445755,3064.096698,3031.733491,3835.377358,4375.865566,
137,,2348.09434,1801.978774,2603.139151,2345.667453,2501.917453,2237.568396,3002.535377,2297.186321,2435.528302,2808.615566,2501.266509,3040.879717,2593.337264,2754.511792,2713.240566,2722.846698,3409.995283,3900.700472,
145,,2109.136792,1650.731132,2332.438679,2088.879717,2230.837264,2020.608491,2644.400943,2036.997642,2171.341981,2553.150943,2220.943396,2699.82783,2308.700472,2412.014151,2430.443396,2439.101415,3006.667453,3439.110849,
153,,1910.95283,1546.78066,2094.891509,1884.733491,2026.061321,1836.759434,2337.997642,1848.976415,1957.879717,2301.806604,2002.59434,2402.898585,2084.766509,2175.176887,2224.353774,2205.306604,2667.167453,3037.67217,
161,,1759.783019,1489.139151,1908.75,1740.721698,1889.650943,1700.200472,2099.365566,1731.936321,1807.476415,2083.238208,1852.443396,2175.879717,1932.339623,2038.040094,2093.580189,2033.516509,2407.287736,2720.502358,
169,,1654.945755,1472.483491,1778.158019,1652.216981,1808.59434,1615.257075,1929.620283,1675.158019,1716.768868,1918.57783,1767.21934,2027.955189,1845.042453,1982.518868,2024.891509,1920.903302,2228.667453,2502.898585,
177,,1590.306604,1487.858491,1702.377358,1610.0,1770.662736,1577.768868,1828.393868,1663.860849,1678.283019,1812.490566,1735.889151,1951.591981,1812.837264,1985.464623,2003.740566,1860.042453,2121.556604,2379.610849,
185,1399.474057,1558.582547,1522.117925,1674.271226,1605.738208,1768.837264,1579.518868,1786.629717,1681.037736,1679.580189,1761.627358,1744.42217,1930.448113,1821.870283,2021.639151,2014.700472,1843.360849,2074.141509,2338.511792,
193,1463.268868,1557.03066,1563.646226,1683.070755,1625.370283,1796.445755,1610.521226,1792.75,1716.195755,1710.103774,1757.363208,1775.367925,1946.691038,1857.068396,2072.341981,2044.525943,1860.825472,2075.766509,2359.441038,
201,1526.34434,1577.646226,1603.662736,1716.636792,1657.358491,1844.311321,1657.141509,1833.391509,1762.46934,1756.891509,1785.334906,1811.375,1982.438679,1904.153302,2121.945755,2083.191038,1900.417453,2115.346698,2421.106132,
209,1586.45283,1609.679245,1639.639151,1763.332547,1692.84434,1897.34434,1708.92217,1892.153302,1814.349057,1806.108491,1831.669811,1848.40566,2022.853774,1945.674528,2158.863208,2121.15566,1947.063679,2176.408019,2502.021226,
217,1639.169811,1638.792453,1666.42217,1812.507075,1722.242925,1938.240566,1753.212264,1954.608491,1860.07783,1844.278302,1879.653302,1883.483491,2052.639151,1971.148585,2177.259434,2154.301887,1988.96934,2240.429245,2577.877358,
225,1678.884434,1660.790094,1680.049528,1852.908019,1742.983491,1958.537736,1785.320755,2007.941038,1888.150943,1865.731132,1918.971698,1909.556604,2069.370283,1979.216981,2174.193396,2177.436321,2021.563679,2292.433962,2636.042453,
233,1703.92217,1674.016509,1678.438679,1878.346698,1749.995283,1953.867925,1800.271226,2042.966981,1891.087264,1869.410377,1942.497642,1919.207547,2071.075472,1969.224057,2152.089623,2187.400943,2040.073113,2325.882075,2666.773585,
241,1711.002358,1680.764151,1660.110849,1888.20283,1741.59434,1928.448113,1796.926887,2053.200472,1870.823113,1859.153302,1950.525943,1910.044811,2060.372642,1945.066038,2115.79717,2179.424528,2042.0,2338.933962,2667.613208,
249,1698.648585,1677.431604,1622.04717,1882.518868,1716.492925,1884.235849,1775.570755,2037.252358,1831.691038,1833.606132,1940.691038,1878.42217,2037.700472,1910.099057,2070.127358,2156.698113,2027.431604,2331.45283,2639.891509,
257,1672.889151,1661.57783,1568.535377,1860.818396,1679.415094,1826.252358,1738.518868,1997.591981,1780.356132,1796.287736,1910.549528,1831.075472,2004.174528,1870.084906,2014.643868,2117.768868,1999.698113,2306.688679,2589.766509,
265,1637.054245,1632.139151,1510.106132,1823.481132,1632.162736,1757.205189,1689.551887,1941.740566,1721.212264,1746.740566,1862.471698,1774.051887,1962.716981,1829.639151,1948.389151,2065.752358,1961.919811,2273.410377,2522.667453,
273,1591.78066,1595.676887,1454.356132,1775.417453,1583.478774,1681.606132,1634.120283,1873.669811,1661.426887,1692.962264,1800.325472,1711.573113,1914.771226,1793.415094,1878.188679,2007.466981,1914.596698,2241.068396,2443.589623,
281,1541.233491,1555.358491,1407.488208,1721.127358,1546.367925,1608.617925,1576.660377,1798.143868,1607.224057,1636.495283,1730.386792,1652.445755,1861.601415,1762.794811,1811.665094,1950.525943,1860.603774,2217.205189,2355.542453,
289,1490.110849,1514.481132,1371.009434,1664.653302,1531.139151,1542.212264,1520.169811,1722.318396,1560.764151,1584.186321,1662.351415,1606.400943,1805.875,1740.714623,1754.179245,1896.018868,1803.551887,2202.016509,2262.882075,
297,1444.549528,1475.165094,1342.759434,1610.087264,1543.382075,1486.113208,1467.679245,1653.318396,1519.061321,1540.537736,1602.014151,1580.537736,1751.846698,1724.377358,1709.587264,1847.792453,1746.752358,2191.412736,2178.120283,
305,1406.188679,1438.400943,1322.466981,1556.528302,1582.589623,1440.875,1420.816038,1595.926887,1481.412736,1507.110849,1554.558962,1578.554245,1695.818396,1708.568396,1680.09434,1803.976415,1689.71934,2170.768868,2104.068396,
313,1376.549528,1402.851415,1312.943396,1502.721698,1638.120283,1409.367925,1388.665094,1555.049528,1444.337264,1482.816038,1525.429245,1601.573113,1644.903302,1707.867925,1664.674528,1757.853774,1638.290094,2120.917453,2039.863208,
321,1358.726415,1365.016509,1316.613208,1452.28066,1683.790094,1391.426887,1374.686321,1529.933962,1406.518868,1468.90566,1518.976415,1645.535377,1604.476415,1730.488208,1656.03066,1699.266509,1601.29717,2056.766509,1976.787736,
329,1354.997642,1325.518868,1335.790094,1408.337264,1722.25,1385.551887,1377.53066,1517.884434,1368.301887,1457.424528,1534.775943,1701.403302,1578.117925,1782.521226,1644.882075,1636.216981,1582.580189,2002.176887,1921.757075,
337,1364.931604,1293.304245,1370.679245,1371.318396,1746.139151,1387.804245,1389.459906,1515.334906,1333.176887,1441.759434,1569.886792,1755.490566,1566.424528,1865.320755,1636.292453,1578.193396,1581.903302,1968.490566,1881.261792,
345,1378.292453,1273.95283,1419.040094,1343.823113,1759.964623,1397.398585,1397.09434,1522.681604,1307.705189,1423.799528,1613.990566,1793.943396,1566.205189,1969.853774,1637.521226,1535.099057,1596.03066,1951.363208,1849.889151,
353,1384.476415,1271.436321,1473.745283,1324.318396,1764.424528,1410.893868,1410.933962,1541.014151,1295.268868,1407.21934,1645.896226,1820.294811,1573.82783,2077.46934,1654.311321,1508.974057,1623.169811,1947.129717,1824.792453,
361,1374.566038,1286.841981,1527.728774,1311.610849,1752.056604,1422.882075,1437.931604,1565.233491,1293.801887,1396.808962,1663.92217,1846.188679,1579.103774,2154.139151,1687.150943,1501.245283,1666.676887,1949.040094,1801.139151,
