ID,2002,2003,2004,2005,2006,2007,2008,2009,2010,2011,2012,2013,2014,2015,2016,2017,2018,2019,2020,2021
1,,446.5644682,503.9471182,111.2964944,328.9102793,-22.2269756,310.9423648,455.7165775,559.5620915,648.6761735,476.5323827,400.8348188,333.8627451,633.2251931,570.6928105,644.5816993,598.8467023,515.1871658,348.7676768,578.4878194
9,,433.7391563,477.3172906,-30.7997623,240.5900178,30.5573381,106.114082,376.1087344,544.1111111,604.1152704,327.6601307,381.0487225,301.5412953,610.734997,565.600713,596.8300654,581.7219251,454.0915033,159.0534759,582.2608437
17,,425.3998812,451.7641117,-125.9768271,272.3666072,195.1319073,-16.7504456,376.5721925,518.7433155,539.4301842,158.7801545,362.3351159,363.3161022,577.9702911,569.7575758,536.6167558,563.9191919,383.2156863,51.9435532,590.6458705
25,,412.8461081,433.7825312,-196.1449792,391.181224,275.0808081,-31.1556744,374.4622698,480.6636958,428.0600119,48.5977421,335.5781343,357.0023767,541.5995247,581.6625074,438.3571004,551.778372,300.8793821,46.3666072,608.2364825
33,,403.8627451,430.7260844,-216.7391563,444.1437908,301.1847891,58.47653,370.7676768,421.1313131,224.9691028,8.6874629,281.9221628,304.4919786,510.6690434,580.9334522,373.2299465,543.3743316,210.1212121,149.2305407,625.436126
41,,400.1378491,442.6898396,-187.8948307,464.1259655,321.5549614,233.1527035,377.3862151,405.4070113,120.6304219,22.1740939,311.3493761,325.0041592,474.8496732,587.3083779,404.3226381,547.3594771,162.5484254,334.5567439,628.9215686
49,,401.9286988,471.8704694,-71.5674391,485.7409388,345.5204991,341.2697564,393.14082,419.4907903,148.5181224,129.171123,346.6304219,358.9768271,436.6708259,601.3030303,424.1740939,562.0047534,175.5763518,435.8449198,632.5591206
57,,411.892454,507.8366013,139.040404,512.8853238,377.3612597,414.0380273,422.0308972,442.6856803,260.9340463,312.278669,389.0897207,390.7670826,459.207962,615.4949495,445.9857398,576.6084373,248.5721925,491.097445,638.5953654
65,,431.7950089,549.1669638,257.5597148,551.969697,422.1122995,472.5698158,457.0053476,486.3327392,337.0118835,408.2376708,444.4307784,430.5918004,494.781937,627.9221628,477.5650624,593.057041,309.7100416,531.379085,643.1105169
73,,459.2109329,594.1093286,333.1218063,598.2144979,476.4848485,530.7557932,504.0047534,542.7385621,400.5644682,463.9043375,498.5858586,474.33571,536.0695187,647.9809863,523.9209745,625.449792,372.5983363,573.5632799,647.5745692
81,,499.1782531,638.3166964,397.4777184,650.9607843,544.087344,590.6167558,560.207962,609.6696376,471.0255496,509.2501485,551.828877,523.1271539,588.838978,676.4646465,575.3677956,673.5656566,437.4723708,627.0338681,
89,,547.2495544,683.896019,459.0029709,696.399287,610.2667855,652.5513963,610.8841355,678.8401664,548.912656,562.8229352,601.3042187,577.2572787,635.731432,713.0059418,620.8098633,727.1057635,506.221628,688.6684492,
97,,599.3957219,725.171123,523.95306,744.2947118,671.7040998,715.2442068,650.7254902,744.3469994,630.5044563,623.1253714,658.1734997,643.714795,687.9619727,752.6524064,674.7908497,776.7682709,574.9607843,752.0932858,
105,,648.684492,756.9090909,581.9970291,786.7967914,726.8627451,756.0606061,693.5115865,801.7759952,708.1568627,684.5175282,715.6868687,709.3814617,739.426025,794.3868093,734.6660725,821.4010695,642.4901961,811.107546,
113,,694.3909685,777.040404,641.3743316,829.0041592,775.9233512,796.9055258,736.0005942,844.2964944,788.6755793,737.6250743,770.8241236,770.228164,784.5620915,832.3458111,796.3285799,860.0326797,705.3588829,869.4373143,
121,,733.9643494,789.563874,695.0582294,863.9465241,811.6399287,836.2554961,776.4979204,877.4289958,863.788473,792.7409388,823.1212121,833.6922163,819.164587,868.8770053,848.9584076,893.0457516,767.2109329,913.61735,
129,,771.6737968,800.7795603,744.7742127,893.8110517,840.3083779,867.6767677,814.4509804,906.5763518,933.4527629,836.6672608,872.4444444,887.9132501,850.3695781,899.1925134,887.7040998,917.8211527,820.3939394,950.3101604,
137,,804.540107,811.0677362,783.902555,912.4753417,859.6803327,890.0950683,851.788473,933.9964349,978.3042187,876.3897802,909.5062389,920.6494355,877.5044563,923.8544266,913.1948901,927.7082591,865.8912656,984.4789067,
145,,832.9578134,818.6737968,818.1188354,924.0944742,868.6862745,898.2085561,880.496732,962.6114082,1005.597148,910.7124183,934.4658348,936.5080214,891.657754,938.7748069,925.8615567,931.0909091,901.95306,1012.305407,
153,,854.8983957,825.6803327,843.5407011,926.9346405,875.0683304,899.342246,899.1473559,993.6607249,1010.5050505,941.637552,951.1788473,949.5151515,897.0380273,953.3838384,934.8205585,930.9370172,934.553773,1032.9566251,
161,,871.1081402,830.3832442,861.3499703,924.4884135,883.1319073,897.7825312,900.311943,1038.8579917,1001.5347594,968.1788473,966.1580511,963.9964349,898.2923351,964.6440879,938.9601901,928.2970885,961.7831254,1048.6957813,
169,,879.4581105,831.254902,872.5543672,915.3874034,891.6583482,891.875817,896.922757,1100.362448,987.7344029,986.2192513,974.3416518,973.5121806,897.2881759,969.902555,937.9269162,923.580511,978.1960784,1057.8306595,
177,,884.5822935,827.1550802,881.3000594,901.8383838,895.1503268,881.2442068,895.1729055,1151.8175876,973.7462864,985.3963161,976.9007724,980.9679144,892.5222816,968.5840761,933.2085561,915.7866904,989.9548425,1059.7926322,
185,811.3458111,882.4099822,817.5977421,886.426025,889.3778966,886.4604872,865.0356506,891.368984,1080.3517528,953.5644682,975.2287582,974.0612002,981.5692216,888.553773,967.2103387,924.7890671,907.6714201,1001.3184789,1054.8062983,
193,797.1681521,878.1045752,808.2352941,889.3731432,879.745098,877.8936423,852.2525253,890.6125966,1011.0540701,936.755199,962.506833,969.436126,978.2857992,883.5377302,961.5412953,917.6238859,895.3683898,1011.2008318,1047.0261438,
201,784.0380273,870.741533,801.7825312,887.0986334,867.9851456,865.9209745,842.036839,887.6066548,969.1556744,920.7094474,947.4070113,964.7724302,969.8366013,879.1830065,950.2287582,910.8371955,882.1616162,1018.3868093,1037.2614379,
209,772.6327986,863.7599525,793.2632204,882.8229352,855.6987522,852.4640523,833.7421272,885.6452763,943.1348782,903.5365419,934.8033274,959.2982769,960.5929887,877.8568033,936.9607843,900.657754,868.8401664,1013.8752228,1031.8116459,
217,764.2661913,850.4408794,773.4444444,873.3945336,844.7908497,838.2976827,827.8978015,883.1871658,915.8954248,883.9483066,920.8508616,947.9120618,948.2572787,873.4979204,924.1865716,890.1723113,858.2043969,1002.631016,1029.2869875,
225,756.5365419,837.5288176,758.5935829,863.2899584,835.1972668,828.6654783,817.0291147,879.7557932,898.4509804,869.3856209,904.5412953,934.7403446,934.0356506,866.3279857,903.379085,877.7676768,845.3582888,988.2834225,1022.4450386,
233,750.8205585,825.3000594,748.734997,850.483066,825.7385621,820.0077243,807.4105764,874.7908497,878.620915,856.6690434,887.7795603,918.6381462,915.835413,857.2899584,884.4147356,867.1348782,835.5430778,974.2519311,1013.1960784,
241,746.3309566,815.5121806,743.2156863,837.4723708,817.8609626,811.1889483,799.1628045,864.506833,860.9803922,848.150921,876.1960784,902.6613191,896.9839572,845.6898396,865.6601307,855.4860368,823.3386809,957.5799168,1001.755199,
249,741.4688057,806.3660131,735.9893048,823.8918598,810.6488414,799.4800951,790.2525253,851.4581105,843.8936423,837.1176471,865.8995841,883.2596554,877.5680333,831.3428402,849.6595365,844.3416518,812.6625074,941.781937,989.7397504,
257,734.191325,798.8787879,729.254902,811.1954843,803.9809863,791.6975639,779.7611408,839.0023767,832.8562092,823.7979798,855.0754605,865.1420083,858.2293523,814.2269756,833.5757576,832.7540107,800.0314914,922.1586453,976.0005942,
265,724.3095663,788.9132501,722.6304219,800.1348782,796.8383838,785.7332145,767.8074866,823.4105764,825.8573975,806.7647059,838.875817,846.0623886,840.2566845,793.3190731,822.6381462,824.590612,790.7540107,901.9269162,960.0053476,
273,712.238265,776.4379085,714.9090909,787.6298277,788.553773,780.792038,757.9946524,804.8193702,818.6583482,790.6589424,818.1592395,826.7944147,819.0386215,768.5306001,813.2840166,815.7344029,781.5769459,874.2697564,940.9661319,
281,697.0903149,760.2311349,710.1087344,772.0445633,777.2655971,774.9863339,749.1295306,782.3363042,808.6720143,772.4135472,793.7492573,810.6702317,799.1723113,740.5139632,806.2762923,808.6708259,771.6333928,844.1699346,921.3434343,
289,676.5555556,741.8877005,707.33571,754.3648247,761.6696376,766.6268568,737.9964349,757.0724896,797.6553773,754.248366,770.09388,794.9857398,781.2804516,711.4527629,796.9239453,798.8972074,753.9590018,810.8633393,896.0814023,
297,653.0314914,719.9500891,699.4486037,736.04694,741.506833,757.33571,725.3743316,730.0819964,786.3196673,731.9578134,745.0439691,774.2935235,763.0796197,683.9013666,792.4997029,789.9560309,741.5989305,780.9685086,867.8585859,
305,621.959596,693.607249,689.073678,717.9679144,714.959596,745.0219846,708.4949495,697.8181818,774.2834225,714.3707665,716.2923351,746.6327986,732.2578728,657.38265,786.0374332,775.4414736,734.7130125,745.8175876,835.0528818,
313,591.9483066,665.2418301,675.1919192,701.9019608,681.5525847,734.4212715,692.1622103,667.4123589,765.6131907,695.902555,685.3672014,719.7385621,703.7759952,627.6654783,782.7409388,759.0558526,732.6191325,708.6797386,800.6981581,
321,566.9114676,629.5222816,657.3547237,685.8437314,619.2352941,715.9738562,673.8039216,636.788473,756.7866904,673.9714795,648.0308972,689.90612,683.6666667,602.3410576,780.7587641,724.419489,720.5662507,667.9768271,754.1907308,
329,552.2590612,597.6232917,631.3707665,670.8954248,542.6036839,669.2572787,655.8787879,613.2026144,747.0695187,657.6755793,606.4842543,662.6381462,676.1182412,586.8401664,775.1158645,693.5591206,702.3701723,628.8371955,703.1972668,
337,545.0499109,569.2358883,590.6506239,652.8597742,456.3351159,609.4836601,633.8954248,595.7266786,734.5822935,640.9887106,561.4622698,630.2881759,670.8461081,575.6892454,760.4824718,666.2002377,682.9096851,595.2133096,654.201426,
345,522.4402852,554.6737968,534.6161616,635.6286393,373.942959,551.5145573,608.1402258,591.1954843,724.6535948,623.7522282,517.3505645,597.1010101,669.3107546,578.8775995,740.4123589,648.6910279,663.2810458,563.4670232,617.4105764,
353,495.9144385,540.7902555,452.2317291,599.8407605,256.4486037,493.0356506,569.6595365,581.6316102,711.5591206,600.4390969,472.3701723,555.9037433,664.7159834,586.9132501,713.7367796,629.6488414,628.4034462,524.7106358,590.9893048,
361,467.7754011,527.4521687,316.9875223,506.3630422,65.201426,421.9477124,523.0356506,573.0291147,688.3458111,561.2596554,435.6833036,479.1348782,654.3773024,581.067142,685.6096257,619.2513369,582.6755793,465.3416518,576.6333928,
