ID,2002,2003,2004,2005,2006,2007,2008,2009,2010,2011,2012,2013,2014,2015,2016,2017,2018,2019,2020,2021
1,,726.6990074,721.3507335,735.648064,769.172713,757.9655679,755.7083586,763.6265461,751.360822,745.5013863,745.7311851,756.9058719,784.8785093,769.1094711,781.6391849,783.5691473,765.9303883,775.4641302,806.3045897,801.7158129
9,,725.892838,722.0941452,737.337544,769.1766813,757.9545284,753.588551,762.4975018,749.5062476,747.9280843,745.5403427,756.0666012,789.1381902,770.3639539,780.7009334,785.1721553,765.9239997,776.3891801,804.782982,799.9933582
17,,724.6501371,722.264537,738.8383505,768.3670293,758.3707172,750.6385314,759.3089806,747.3756485,750.2508531,745.398037,756.0269538,792.6902685,771.5725648,779.9409455,786.1668118,766.023603,777.4852582,802.7573008,798.3518727
25,,722.8498928,721.9939021,739.9260078,766.5744686,758.8862253,747.1432071,754.5946472,745.591192,752.1100938,745.0732824,756.8731999,795.0120777,772.7747785,779.7168837,786.5015112,766.373028,779.0593385,801.0717104,797.2941968
33,,720.6536864,721.3616174,740.8472843,764.1301817,759.246476,743.5779186,749.3667437,744.0777331,752.9980723,744.3615096,758.3789292,796.5294332,774.0759678,779.8484663,785.9816088,766.5656852,780.5421541,800.1087784,796.7891962
41,,718.1811354,720.3421058,741.9107485,761.5635625,759.3510466,740.5019098,744.4865154,742.8401328,753.152052,743.6462509,760.3433511,797.248154,775.5548647,780.2146079,784.5477251,766.8991566,781.3777421,800.1349523,796.6978699
49,,715.6678594,719.1278349,743.0747654,759.0067821,759.1697812,738.1798713,740.2040422,741.9624907,752.8833311,743.1764521,762.5761705,797.8882248,777.0261602,780.263196,782.9587875,767.1543338,780.8606877,800.9675623,796.4778928
57,,713.0846024,717.9353898,744.5386236,756.4749901,758.8641207,736.688529,736.7733691,741.3420768,752.6500892,743.0070831,764.4271683,798.4666344,778.0348666,779.4390939,781.6158111,767.214743,779.3740919,802.4327035,795.7766755
65,,710.5632239,716.7846036,747.0913263,754.132626,758.6209972,735.8869745,734.028536,740.8158011,752.6193295,743.144218,765.7624032,798.9690402,778.6526755,777.9440739,780.6690585,766.8625368,777.6064855,804.0396747,794.4547089
73,,708.0442623,715.5946318,750.2869923,751.8148706,758.1430104,735.6519348,731.6920149,740.1689601,752.6796361,743.5972437,766.3390184,798.9285957,778.6264212,775.8853546,780.0450063,765.9218992,776.1289827,805.4229982,792.7612435
81,,705.8474468,714.3715929,753.3517872,749.3363911,757.2208221,735.8257733,729.275402,739.3162245,752.7722778,744.2381698,766.0080393,798.2482942,778.0330107,773.2506256,779.4800515,764.30037,775.1180988,806.3717691,
89,,703.9430305,712.9818534,755.6956343,746.3610734,755.4732916,736.0219729,726.6572254,738.2162397,752.5745832,744.5475729,764.1022768,796.299566,776.5515053,770.1351575,778.3655549,761.9683184,774.6208125,806.8912917,
97,,702.207624,711.5074363,757.1654229,743.0917402,753.3355769,735.5876051,723.4892744,736.9935412,751.9822486,744.3009225,761.1140826,793.2948793,774.6572151,766.1618907,776.7938231,759.1795327,774.302751,807.1120437,
105,,700.3751901,709.9970015,757.5278989,739.736178,751.0868431,733.9006224,720.0543251,735.5946096,750.4174784,743.4820647,757.4985042,789.2446936,772.4473897,761.7511516,774.7144668,756.107552,774.5785686,806.7537071,
113,,698.3276796,708.5916539,756.8581836,736.67302,748.9605699,731.3313623,716.8236984,734.2488433,748.1315792,742.4116423,753.8369188,784.7474946,769.9686109,757.1796284,772.4753716,752.9995775,775.431932,805.7958791,
121,,696.0389153,707.3151606,755.5308495,734.0482597,747.0555532,728.2853485,714.2614359,732.8549969,745.4003992,741.4248558,750.2685566,779.8801445,767.3256903,752.9711715,770.178414,750.1104923,776.5880105,804.4138214,
129,,693.7801187,706.1294753,754.0728496,732.0869646,745.4797453,725.0870347,712.7176705,731.5897227,742.8552928,740.871474,747.2391465,775.0422285,764.6780796,749.4414252,767.9647811,747.6527952,777.652176,802.7252223,
137,,691.6377788,705.2109304,752.7257338,730.7611785,744.2112878,722.1597064,712.2063069,730.5972967,740.6404814,740.9529445,744.8205888,770.146197,762.1481709,746.8651247,765.8664675,745.6746432,778.5841157,800.9556334,
145,,689.863965,704.7178416,751.5754778,729.859422,743.2882871,719.6424895,712.487516,730.0006089,739.0216702,741.8203938,742.914799,765.9002325,759.8037183,745.0903222,764.0233242,744.1526797,779.1699266,799.2318051,
153,,688.4088028,704.4976181,750.5392292,728.9463916,742.6055396,717.6544065,713.2299133,729.5855098,737.9214528,743.1984472,741.1494743,762.4644621,757.7509429,744.0893199,762.4389536,743.2627581,779.4668858,797.5698417,
161,,687.2565319,704.3396325,749.5973703,728.0851497,742.0536785,716.3376688,714.0045738,729.3297117,737.4389433,744.7885428,739.760667,759.7148619,755.9055435,743.4991371,761.1575786,743.0301217,779.3534087,795.9037595,
169,,686.1767206,704.1464176,748.7222102,727.4154823,741.2970722,715.9085317,714.6406353,729.1616051,737.3230835,746.0385783,738.5489037,757.3433442,754.3651786,743.4501658,760.2038678,743.3759974,779.0524504,794.3434144,
177,,685.1761442,703.9804115,747.8064003,727.1707219,740.2810295,716.0934558,715.0830321,729.1024975,737.6461585,746.1237332,737.6761177,755.2719793,753.1502987,743.8212969,759.6661917,744.0430273,778.6035263,793.1057799,
185,687.8510731,684.4756179,704.0974875,746.7642265,727.5017353,739.4159424,716.9006515,715.6010496,728.9310777,738.3454721,745.7717766,736.9290832,753.4327804,752.3941098,744.6525916,759.685226,745.0361392,778.3036986,792.3103404,
193,690.4553469,684.2001372,704.7531101,745.7706374,728.368107,738.994234,718.2479504,716.3136451,728.8339083,739.486606,745.2742115,736.4294672,751.8885413,752.172104,745.9177564,760.2954438,746.3977873,778.1785149,792.0205635,
201,693.0828235,684.6867826,705.8948632,745.1519819,729.6613921,739.0844245,720.1111611,717.2046683,729.0162308,740.8040107,744.7132027,736.1858734,750.6579369,752.5648522,747.6141365,761.477602,748.2149876,778.3737772,792.3312631,
209,695.824658,686.0228709,707.4861117,745.1758466,731.4115088,739.7058322,722.3192024,718.2436571,729.7714191,742.2387565,744.470536,736.4549569,749.6194168,753.3888141,749.6324643,763.1420063,750.27643,778.7745938,793.2082312,
217,698.6400384,687.7618011,709.2577583,745.8583153,733.4740322,740.6800193,724.746718,719.4900783,730.9065801,743.5981554,744.6617581,737.3658542,748.7986227,754.3936137,752.1095686,765.1364866,752.5532004,779.6564402,794.6204106,
225,701.337674,689.6309848,711.0516139,747.0540462,735.7109055,741.8933512,727.069704,720.8958964,732.3028553,744.9431161,745.3647458,738.6654237,748.222808,755.2838843,754.7273006,767.1582337,754.7689475,780.8953473,796.3563303,
233,704.0033526,691.679241,712.7056116,748.5273892,737.8235702,743.1639467,728.8765798,722.3976299,733.6352405,746.1459524,746.4348382,739.9980261,747.8274957,756.0045841,757.3625034,769.0432941,756.8964266,782.3476547,798.0815628,
241,706.6971361,693.8634177,714.1555397,750.1840894,739.5385364,744.3863339,730.1103212,723.9114259,734.8382359,747.3074856,747.9940407,741.3081527,747.6863053,756.7116411,759.6820719,770.4478584,758.6789263,783.6789862,799.5332955,
249,709.0640252,695.9675658,715.0786037,751.9000529,740.7638742,745.4519772,730.8935445,725.2711754,735.6336497,748.262688,749.8614027,742.3892982,747.7521095,757.4952577,761.6283506,771.540524,759.9712604,784.9388347,800.6935971,
257,711.0733268,697.8665547,715.6218662,753.4767571,741.6829511,746.330206,731.4344653,726.6496376,736.1709375,749.1708862,751.8519779,743.3793055,747.8599197,758.4492336,763.1693416,772.2287434,760.7005793,785.9839745,801.6132915,
265,712.8601438,699.567418,715.8463504,754.6710717,742.4432178,747.0203633,732.0683887,728.1374051,736.3205366,749.861283,753.4961129,744.3532343,748.0867901,759.5862607,764.5093983,772.6818974,761.1419088,787.098081,802.4188981,
273,714.4088097,701.0469494,715.9794057,755.5581677,743.1523753,747.6604958,733.0531431,729.6035759,736.4955074,750.5229607,755.038864,745.4439072,748.6905764,760.8662229,765.7068825,772.9275814,761.4337674,788.3540775,803.2332402,
281,715.8564611,702.3114813,716.073137,756.3161834,744.0271009,748.2550934,734.61785,730.8727809,736.9265192,751.0377385,756.5198442,746.7385248,749.6522136,762.3490778,766.8999468,773.1552711,761.8886935,790.0207739,804.2195341,
289,717.4731035,703.5431017,716.382381,756.9964046,745.3234889,748.7998543,736.7298406,731.8976445,737.6914334,751.3695882,758.0789047,748.453804,750.903349,764.0292698,768.0695244,773.1755626,762.6131649,792.0398407,805.2233964,
297,719.3439942,704.9149546,716.8534199,757.7885702,747.1237332,749.3194505,739.2829418,732.8420742,738.6394705,751.4724603,759.7422656,750.662988,752.388005,765.8341991,769.4138505,773.1101741,763.7327279,794.427247,806.3802429,
305,721.1700908,706.4988018,717.4373663,758.7521385,749.3276591,749.8832798,742.0723279,734.2028859,739.620727,751.4350041,761.2654607,753.397151,753.7555475,767.4716872,770.9101071,772.7556519,764.9729042,796.8039697,807.5601946,
313,722.6710974,708.2172557,718.4115379,759.9522056,751.6689969,750.5686991,745.2499773,736.2914344,740.3554887,751.3679924,762.2772955,756.4429767,755.1634849,769.2351987,772.6709623,772.2374189,766.5186965,799.0863864,808.5585748,
321,723.8853273,709.9043701,719.9927356,761.3038765,754.013583,751.5049476,748.6663713,739.1339225,740.6266863,751.1385477,762.8503034,759.5913836,756.5730318,771.0963774,774.4009141,771.1759133,768.0667928,800.9518498,809.2535078,
329,725.0547304,711.7857325,722.2406689,762.7950581,756.173782,752.8293225,752.3036781,742.5576271,740.5834247,750.6623483,762.9593657,762.7721598,758.2492606,773.2748341,775.9476762,769.968917,769.6906619,802.6386922,809.6293102,
337,726.1196691,713.6712479,724.8955355,764.4079066,757.7368844,754.4109546,755.7981951,746.04671,740.4950558,749.712055,762.5296248,766.3066235,760.2364628,775.5960019,776.9989634,768.6329313,771.2056107,804.1680895,809.3157062,
345,727.1270584,715.6962552,728.0168928,766.1282814,758.6234946,755.87125,759.0731216,749.1544569,740.8903219,748.4762285,761.6293803,770.4843585,762.7767011,778.3969783,778.1383236,767.5763039,772.7092584,805.6107497,808.5962448,
353,727.6909134,717.9283717,731.1661977,767.5672349,758.7611819,756.777866,761.7329845,751.4055324,741.9173732,747.1662217,760.175903,775.1769379,765.4045694,781.0036279,779.7207391,766.7241276,773.8099615,806.5584619,807.4795537,
361,727.4500085,719.9521286,733.7687816,768.5771318,758.3881145,756.7630155,763.5435413,752.0708706,743.4922489,746.3044923,758.4514008,780.1125586,767.4929913,782.1488465,781.7012652,766.2470592,774.7800571,806.9910336,806.222329,
