ID,2002,2003,2004,2005,2006,2007,2008,2009,2010,2011,2012,2013,2014,2015,2016,2017,2018,2019,2020,2021
1,,1073.940613,1081.04023,398.645594,1118.418263,210.019157,903.321839,919.282248,1138.243295,1026.819923,897.111111,849.059387,1124.556833,1132.003193,1309.956577,1092.809068,1195.390166,1130.782248,919.258621,1328.763091
9,,1064.346743,1073.42848,263.863346,1113.842273,189.204981,772.142401,840.44636,1125.533206,984.106003,794.532567,876.793742,1090.714559,1122.493614,1286.577267,1040.436143,1181.97318,1036.96424,777.655172,1292.664112
17,,1063.853768,1072.652618,182.828225,1129.494253,228.382503,672.303321,799.825032,1120.760536,931.586207,688.885057,928.67433,1078.113665,1120.791188,1266.717114,1002.492337,1184.951469,919.885696,700.060026,1272.08493
25,,1073.718391,1081.9106,165.160281,1168.489783,323.360153,626.210089,808.92401,1129.475734,870.948276,605.137931,994.201149,1081.66539,1128.953384,1257.798851,995.01341,1208.003831,791.712005,701.770115,1267.103448
33,,1095.60728,1103.045338,215.318646,1219.272031,463.752235,644.713282,865.696679,1157.733078,815.581098,564.821839,1074.287356,1106.793742,1149.468072,1267.798212,1026.804598,1253.855045,679.233716,786.263091,1276.944444
41,,1130.942529,1136.322478,331.541507,1275.940613,640.218391,727.201149,963.180715,1214.978289,793.711367,579.05811,1173.402299,1162.602171,1184.257982,1303.969987,1097.249042,1324.113665,611.686462,944.653895,1300.128991
49,,1181.578544,1183.713921,504.840996,1338.287356,845.997446,862.05811,1090.256705,1300.082375,823.595785,649.726054,1285.700511,1245.202427,1234.257344,1371.123244,1189.578544,1417.923372,610.912516,1154.887612,1334.971903
57,,1249.321201,1246.697318,717.423372,1407.561941,1072.447637,1023.698595,1238.485951,1406.680077,908.38825,768.176884,1410.601533,1350.492337,1298.500639,1470.698595,1299.732439,1532.053001,688.951469,1383.796296,1378.858238
65,,1337.155172,1325.123244,938.577905,1486.921456,1306.87484,1200.565134,1403.351213,1533.421456,1038.386973,912.983397,1550.414432,1477.101533,1379.372925,1600.723499,1429.542784,1666.796296,846.354406,1621.475734,1428.377395
73,,1444.984674,1416.345466,1153.726692,1576.526181,1532.549808,1389.259259,1580.364623,1678.683269,1203.097063,1078.596424,1704.713282,1622.847382,1478.62963,1755.828225,1579.718391,1820.38378,1066.393997,1862.420179,1478.199872
81,,1570.433589,1515.588761,1361.754151,1675.579821,1749.077905,1586.938059,1762.634738,1839.679438,1396.660281,1262.466794,1869.972542,1784.858238,1596.46424,1930.791826,1749.052363,1988.180077,1328.922095,2102.974457,
89,,1708.572158,1617.59387,1565.610473,1781.478927,1957.566411,1788.777139,1943.958493,2010.381226,1610.968072,1461.064496,2044.070243,1959.918902,1730.579183,2118.16092,1934.967433,2161.978927,1618.753512,2336.908685,
97,,1851.230524,1715.518519,1768.305236,1891.906769,2156.006386,1986.95977,2124.524904,2182.816731,1835.203065,1667.256705,2222.385696,2142.694764,1878.690294,2311.931673,2133.966156,2330.844828,1922.909323,2564.288633,
105,,1985.841635,1801.460409,1967.293103,2005.130907,2339.184547,2173.105364,2302.590038,2348.295658,2060.457854,1875.259898,2398.779055,2324.664751,2037.37037,2503.655172,2338.604087,2486.911239,2226.992337,2781.261814,
113,,2106.644955,1870.547893,2158.721584,2118.931034,2502.37931,2343.868455,2472.844189,2499.272031,2280.010217,2077.028736,2568.724777,2495.893359,2200.988506,2683.614304,2541.118135,2630.198595,2521.409962,2985.310345,
121,,2213.051724,1927.286718,2334.337803,2230.060026,2643.869093,2495.727969,2630.404215,2633.842912,2485.021073,2270.83908,2728.56258,2650.393359,2362.791188,2847.650702,2731.498723,2761.979566,2796.10728,3173.063218,
129,,2305.055556,1977.090677,2494.005109,2334.5,2763.326309,2628.705619,2767.54917,2749.33908,2667.01341,2454.687739,2874.594508,2780.690294,2512.155172,2990.720307,2900.434227,2881.813538,3043.727969,3344.10728,
137,,2385.171775,2024.00894,2638.840996,2427.087484,2861.793742,2739.42848,2882.212005,2843.047254,2817.655811,2623.60281,3002.50894,2886.788633,2641.049808,3107.466794,3040.971264,2988.098978,3258.624521,3496.273308,
145,,2453.967433,2069.514049,2767.340358,2502.10728,2939.003193,2824.298851,2969.894636,2910.53129,2929.716475,2771.243295,3106.506386,2970.5447,2746.37931,3195.466794,3148.590677,3077.632822,3433.305875,3627.158365,
153,,2511.467433,2113.050447,2876.292465,2557.298212,2993.97318,2880.378672,3029.38378,2950.787356,2998.294381,2890.96424,3181.355683,3034.234355,2828.523627,3254.474457,3220.929119,3146.713921,3563.503831,3732.337165,
161,,2555.822478,2152.693487,2962.930396,2591.214559,3027.07152,2905.854406,3058.295658,2963.855683,3025.007663,2976.530651,3224.60281,3076.367816,2889.118774,3285.309068,3259.194125,3190.289911,3650.234355,3809.097063,
169,,2586.521073,2184.583653,3023.394636,2603.740741,3037.998723,2904.206258,3061.171137,2955.399745,3013.44636,3025.41954,3239.302682,3097.249042,2930.542146,3289.368455,3264.936143,3204.984036,3695.916347,3855.924649,
177,,2603.652618,2205.226692,3058.299489,2596.362069,3026.604087,2879.436782,3043.923372,2934.298851,2972.574713,3039.849298,3229.259259,3096.978289,2953.9553,3268.974457,3241.711367,3191.557471,3706.316731,3874.107918,
185,2322.697957,2608.738186,2213.752874,3067.804598,2571.284163,2993.673052,2836.109195,3012.49106,2910.42848,2913.667305,3026.279055,3198.553001,3076.353768,2961.927842,3226.053001,3192.431673,3153.239464,3688.621967,3865.124521,
193,2263.307152,2601.121967,2209.967433,3053.094508,2532.998723,2943.288633,2779.159642,2971.613665,2883.318008,2846.83908,2992.885696,3151.543423,3037.51341,2956.328225,3165.991699,3124.530013,3094.941252,3651.078544,3833.760536,
201,2203.8659,2578.949553,2192.635377,3016.330779,2487.155811,2880.327586,2712.206258,2923.832695,2851.592593,2779.453384,2945.981481,3090.885057,2984.099617,2934.039591,3095.242656,3045.788633,3022.498723,3599.076628,3782.59387,
209,2143.814815,2541.725415,2162.166667,2962.039591,2435.842273,2807.663474,2638.417625,2871.922733,2812.719668,2715.911877,2891.14304,3017.14304,2919.507663,2890.122605,3017.242656,2962.826309,2940.371648,3535.146871,3714.950192,
217,2083.918902,2487.01341,2119.056194,2895.66092,2377.871648,2726.780971,2557.249042,2816.733716,2757.9553,2656.242656,2831.222222,2929.583653,2845.069604,2816.667305,2933.98659,2879.448276,2851.827586,3458.49553,3633.494253,
225,2024.725415,2419.498723,2065.757982,2820.86143,2314.426564,2638.512133,2469.773308,2757.576628,2681.840358,2597.297573,2767.043423,2829.483397,2762.418902,2722.980204,2846.923372,2797.072158,2757.565773,3366.682631,3539.387612,
233,1965.927203,2341.230524,2002.958493,2739.280971,2245.436782,2542.474457,2375.461686,2691.234355,2584.552363,2531.036398,2696.011494,2717.140485,2671.588761,2615.307791,2753.08493,2712.429119,2656.855045,3259.726054,3430.551086,
241,1905.544061,2253.857599,1931.915709,2650.441252,2169.744572,2437.676245,2272.443806,2613.431673,2468.478927,2448.201149,2613.849936,2593.07152,2572.245849,2497.912516,2647.360153,2620.650702,2548.931034,3139.296296,3303.577905,
249,1840.881865,2156.952746,1852.669221,2551.89272,2087.221584,2322.190932,2159.803321,2520.260536,2336.905492,2341.063218,2513.094508,2459.833333,2463.154534,2372.709451,2525.858238,2517.950192,2430.775862,3006.503831,3154.83908,
257,1771.003193,2049.914432,1766.743934,2440.574713,1999.276501,2195.896552,2040.470626,2409.220945,2196.864623,2215.280332,2385.003193,2320.668582,2343.212644,2241.920817,2390.060026,2401.257344,2301.755428,2864.224138,2986.635377,
265,1696.89272,1935.203065,1677.893997,2315.227969,1909.518519,2062.896552,1916.844828,2280.645594,2053.199872,2078.221584,2237.262452,2179.748404,2212.966156,2107.37931,2243.332056,2274.916347,2164.87037,2716.036398,2804.684547,
273,1619.734355,1818.072158,1590.586207,2177.636015,1821.079821,1928.587484,1794.636015,2136.572797,1910.061303,1938.024266,2079.006386,2041.648787,2076.606641,1973.526181,2092.463602,2144.085568,2025.748404,2567.635377,2618.56705,
281,1542.945722,1703.340358,1508.726054,2034.298212,1735.94189,1801.979566,1679.176245,1983.043423,1770.779055,1802.157727,1920.107918,1910.181992,1938.333333,1844.792465,1945.35249,2016.667944,1889.790549,2424.01341,2439.026181,
289,1469.503193,1596.029374,1436.472542,1892.579183,1652.84802,1688.726692,1575.403576,1830.0,1641.327586,1676.00894,1767.87037,1789.855683,1804.821201,1727.912516,1807.615581,1898.231801,1763.592593,2287.94189,2274.274585,
297,1402.249042,1499.388889,1374.276501,1758.713282,1567.303321,1592.650064,1485.757344,1685.672414,1524.743295,1563.037037,1627.174968,1683.572158,1679.631545,1625.84802,1683.82567,1792.302043,1652.537676,2161.427203,2129.733078,
305,1342.037676,1414.91954,1319.445083,1636.948276,1471.299489,1514.116858,1410.980204,1556.599617,1423.020434,1464.727969,1499.458493,1592.633461,1565.139847,1540.66539,1576.64751,1698.796935,1559.503831,2043.040868,2006.59834,
313,1289.299489,1342.487229,1267.095147,1528.948914,1354.064496,1451.077267,1350.164751,1446.515326,1336.837803,1380.738186,1383.39272,1515.783525,1463.993614,1471.91954,1486.435504,1614.924649,1484.996807,1929.245849,1901.560026,
321,1244.796296,1280.074713,1210.08493,1433.786718,1203.115581,1398.216475,1300.606641,1357.469349,1265.719668,1308.388889,1275.270115,1449.775862,1377.533844,1419.374202,1411.732439,1534.008301,1426.423372,1815.150702,1806.104725,
329,1208.507024,1225.687101,1138.734355,1350.460409,1013.903576,1347.464879,1257.708174,1288.676884,1208.300128,1244.782886,1170.375479,1391.47765,1306.391443,1383.404215,1349.92401,1454.407407,1378.962324,1695.402937,1714.197957,
337,1178.185824,1179.975096,1043.003193,1279.423372,802.728608,1292.680077,1214.409962,1237.886335,1162.215837,1185.63857,1067.310345,1337.113665,1249.816731,1361.786079,1296.666028,1380.52235,1338.088123,1567.521073,1625.302682,
345,1150.340358,1142.755428,916.172414,1220.987229,600.424649,1226.333333,1162.337165,1202.032567,1125.019796,1126.228608,970.47318,1282.60728,1206.282886,1350.257982,1247.469987,1316.236271,1298.913155,1426.872925,1540.153895,
353,1121.691571,1114.381226,755.503831,1174.399106,425.414432,1140.291188,1094.178161,1176.289911,1093.11622,1061.409323,895.821201,1227.249042,1173.353768,1342.154534,1198.279055,1263.374202,1255.537037,1270.122605,1460.380587,
361,1094.0,1094.448276,570.996169,1139.61622,290.748404,1030.816092,1010.699234,1155.724777,1061.886335,986.39272,854.498723,1173.060664,1149.09387,1328.968072,1146.93295,1222.972542,1201.754789,1096.989144,1386.60728,
