ID,2002,2003,2004,2005,2006,2007,2008,2009,2010,2011,2012,2013,2014,2015,2016,2017,2018,2019,2020,2021
1,,1216.879056,1213.254671,793.40413,1326.054081,1121.424779,1127.963618,1196.201573,1329.99115,1105.47591,1106.241888,1242.061947,1215.590954,1166.515241,1292.374631,1242.484759,1227.951819,1212.813176,1015.988201,1419.631268
9,,1186.386431,1208.956735,702.411013,1323.207473,1142.375615,1030.647984,1174.993117,1318.207473,1089.881023,1051.443461,1231.533923,1196.296952,1155.060964,1297.465093,1209.012783,1215.116028,1197.148476,903.321534,1382.889872
17,,1167.672566,1212.036382,642.760079,1334.693215,1202.215339,949.893805,1176.966568,1318.80531,1073.468043,987.685349,1233.738446,1191.07473,1151.508358,1313.063913,1183.950836,1216.112094,1180.039331,859.170108,1360.389381
25,,1165.343166,1221.450344,626.622419,1361.752212,1288.138643,904.550639,1203.042281,1333.911504,1057.499508,925.079646,1252.26647,1199.06883,1157.678466,1342.765978,1178.026549,1234.447394,1161.270403,892.058997,1350.545723
33,,1181.218289,1240.93707,664.642085,1405.027532,1384.196657,906.470993,1250.602753,1364.873156,1048.915438,889.208456,1290.456244,1224.130777,1176.731563,1394.07178,1200.564405,1272.960669,1144.348083,996.384464,1351.359882
41,,1217.273353,1274.858407,756.970501,1464.342183,1487.181908,960.559489,1321.779744,1417.322517,1064.910521,892.533923,1351.492625,1273.710914,1211.491642,1473.860374,1256.669617,1334.359882,1141.551622,1154.609636,1360.27237
49,,1274.347099,1326.789577,894.870206,1540.092429,1602.175025,1056.893805,1420.120944,1495.228122,1116.750246,939.738446,1435.322517,1346.901672,1264.153392,1586.487709,1342.66765,1420.452311,1170.523107,1350.399213,1374.509341
57,,1353.523107,1398.277286,1063.80826,1632.94297,1734.521141,1178.132743,1547.320551,1598.619469,1208.665683,1028.270403,1544.54179,1444.624385,1335.316618,1732.412979,1458.544739,1531.242871,1244.647984,1568.915438,1391.141593
65,,1457.419862,1488.579154,1245.044248,1742.914454,1887.482793,1319.677483,1703.443461,1725.52999,1337.685349,1150.030482,1681.232055,1567.589971,1427.555556,1906.93707,1605.825959,1666.614553,1367.941003,1803.373648,1409.092429
73,,1584.836775,1594.443461,1435.249754,1866.982301,2058.728614,1479.302852,1884.410029,1871.657817,1500.764995,1302.998033,1843.523107,1713.836775,1541.939036,2102.043265,1782.591937,1823.19174,1534.387414,2051.039331,1427.686332
81,,1732.305801,1709.873156,1635.224189,2000.085546,2243.113078,1654.239921,2081.109145,2030.882989,1692.749263,1483.151426,2025.380531,1881.732547,1677.124877,2306.983284,1983.198623,1993.911504,1740.656834,2307.170108,
89,,1891.432645,1827.588987,1844.800393,2133.908555,2430.084562,1839.743363,2282.290069,2194.235988,1904.429695,1683.451327,2218.6588,2067.111111,1828.274336,2506.415929,2198.189774,2168.13176,1980.682399,2563.214356,
97,,2053.72763,1939.600787,2060.234022,2261.292035,2605.665683,2028.967552,2477.213373,2351.285152,2122.623402,1892.762045,2412.368732,2262.625369,1989.560472,2688.147493,2415.554572,2333.884956,2245.066863,2814.224189,
105,,2206.927237,2038.892822,2271.511308,2379.011799,2757.268437,2212.814159,2653.031465,2491.141593,2335.581121,2102.021632,2596.505408,2456.480826,2152.663717,2843.089479,2620.880039,2476.644051,2518.767945,3049.705015,
113,,2341.899705,2120.610619,2468.144543,2483.116028,2878.044248,2382.056047,2799.166175,2605.473943,2532.620452,2299.551622,2759.358899,2634.657817,2309.077679,2966.422812,2803.927237,2598.174041,2787.835792,3262.856441,
121,,2452.80826,2181.912488,2638.156342,2569.304818,2965.621436,2528.500492,2909.750246,2691.178958,2702.577188,2480.169125,2895.361849,2786.543756,2449.66765,3058.878073,2956.46116,2700.574238,3034.091445,3447.291052,
129,,2536.509341,2222.490659,2775.59882,2632.094395,3021.410029,2644.683382,2981.831858,2745.180924,2837.290069,2637.54179,3001.451327,2900.352999,2562.06883,3122.014749,3069.354966,2783.814159,3244.749263,3598.503441,
137,,2591.488692,2242.943953,2878.244838,2668.251721,3048.276303,2722.864307,3019.414946,2766.615536,2930.162242,2766.436578,3074.938053,2974.403147,2635.915438,3154.574238,3139.386431,2846.839725,3409.615536,3714.250737,
145,,2618.277286,2245.13766,2945.093412,2675.212389,3049.565388,2762.049164,3025.795477,2756.014749,2976.473943,2862.327434,3112.653884,3010.791544,2675.878073,3157.634218,3167.656834,2887.543756,3522.139626,3792.764995,
153,,2618.681416,2232.570305,2976.777778,2655.415929,3028.234022,2766.687316,3005.195674,2717.154376,2976.029499,2923.626352,3114.016716,3014.184857,2688.025565,3132.634218,3157.917404,2905.365782,3581.198623,3831.459194,
161,,2596.26352,2210.490659,2977.384464,2613.019666,2988.960669,2744.588987,2961.629302,2657.705015,2936.80236,2950.959685,3082.292035,2989.122911,2679.689282,3083.507375,3118.236971,2900.343166,3592.648968,3832.767945,
169,,2557.426745,2182.513274,2952.229105,2552.442478,2935.816126,2703.80826,2899.876106,2587.051131,2869.101278,2945.058014,3027.980334,2942.363815,2656.996067,3016.74238,3055.609636,2872.387414,3565.617502,3802.930187,
177,,2508.902655,2151.584071,2909.223206,2481.168142,2872.443461,2651.430678,2826.247788,2516.588004,2785.536873,2910.832842,2959.083579,2880.851524,2624.828909,2938.147493,2978.504425,2826.098328,3512.825959,3750.637168,
185,2070.362832,2456.731563,2119.256637,2856.3294,2406.063913,2803.12881,2593.691249,2747.502458,2458.632252,2698.554572,2855.768928,2884.049164,2810.927237,2588.20059,2853.20649,2893.628319,2767.411996,3446.121927,3683.328417,
193,2051.915438,2404.852507,2086.650934,2799.774828,2333.352016,2732.597837,2534.988201,2670.217306,2412.284169,2617.948869,2787.969518,2809.306785,2738.709931,2550.721731,2768.40708,2808.777778,2701.776794,3376.858407,3608.049164,
201,2032.500492,2355.239921,2053.079646,2742.945919,2268.685349,2665.138643,2477.288102,2596.483776,2374.864307,2548.411996,2713.403147,2737.114061,2667.60472,2511.166175,2687.723697,2728.914454,2634.004916,3311.26352,3530.06588,
209,2010.932153,2309.409046,2017.867257,2688.477876,2214.626352,2600.819076,2420.574238,2527.801377,2343.327434,2490.339233,2637.94297,2667.558505,2597.966568,2467.003933,2613.362832,2656.877089,2566.767945,3251.523107,3453.357915,
217,1986.348083,2266.308751,1980.265487,2636.970501,2170.807276,2536.630285,2361.13471,2464.183874,2310.349066,2440.377581,2564.46116,2600.606686,2528.894789,2413.491642,2544.652901,2592.579154,2501.118977,3195.517207,3378.933137,
225,1957.422812,2224.411013,1941.370698,2587.783677,2133.46411,2470.537856,2297.976401,2404.705015,2269.642085,2394.99115,2493.625369,2534.835792,2458.892822,2351.294002,2480.628319,2534.159292,2436.603736,3137.077679,3305.385447,
233,1923.402163,2181.726647,1899.409046,2537.884956,2097.098328,2399.387414,2230.319567,2346.87119,2216.470993,2346.857424,2423.666667,2467.619469,2386.428712,2281.204523,2418.504425,2476.656834,2371.120944,3071.295969,3228.770895,
241,1883.175025,2138.143559,1853.570305,2485.066863,2058.384464,2321.663717,2156.215339,2287.996067,2149.909538,2287.958702,2351.376598,2394.721731,2310.775811,2204.427729,2354.151426,2415.080629,2301.875123,2995.356932,3144.454277,
249,1835.726647,2090.579154,1801.965585,2426.015733,2014.626352,2235.26647,2075.073746,2224.99115,2070.219272,2213.343166,2272.446411,2313.690265,2231.165192,2120.943953,2283.207473,2346.895772,2224.783677,2908.264503,3047.110128,
257,1782.311701,2035.600787,1744.365782,2357.453294,1965.20944,2140.434612,1989.354966,2154.230088,1980.554572,2125.155359,2183.46706,2224.726647,2146.366765,2031.27237,2204.60472,2269.154376,2136.774828,2810.823992,2935.530973,
265,1724.902655,1972.048181,1682.479843,2277.860374,1911.176991,2039.262537,1901.555556,2073.909538,1884.225172,2027.497542,2085.210423,2129.156342,2056.47001,1936.758112,2117.872173,2181.911504,2039.737463,2704.832842,2810.609636,
273,1665.282203,1901.228122,1618.584071,2188.184857,1854.872173,1936.161259,1813.897738,1983.20944,1784.853491,1925.079646,1980.015733,2029.032448,1962.158309,1840.388397,2024.041298,2087.145526,1936.161259,2594.198623,2675.94002,
281,1605.204523,1824.251721,1556.255654,2092.028515,1800.094395,1837.142576,1728.900688,1885.566372,1685.992134,1821.794494,1872.839725,1926.816126,1865.238938,1745.480826,1926.637168,1989.181908,1828.561455,2482.690265,2537.364798,
289,1547.817109,1743.6765,1498.26942,1992.583088,1749.095379,1746.766962,1648.823992,1786.603736,1591.526057,1721.245821,1767.846608,1826.626352,1767.288102,1655.098328,1828.085546,1890.900688,1722.366765,2371.723697,2400.201573,
297,1496.159292,1663.327434,1444.810226,1893.313668,1701.795477,1667.92822,1575.508358,1693.174041,1503.642085,1626.578171,1669.582104,1731.511308,1670.20944,1571.491642,1734.028515,1795.599803,1622.256637,2261.049164,2270.220256,
305,1451.248771,1586.066863,1395.163225,1796.748279,1655.133727,1601.40118,1509.911504,1610.723697,1424.424779,1539.276303,1581.159292,1643.791544,1576.599803,1495.605703,1648.3353,1705.016716,1531.999017,2148.817109,2150.350049,
313,1413.901672,1513.946903,1348.157325,1704.589971,1603.316618,1546.100295,1453.368732,1542.33825,1354.488692,1461.525074,1504.52409,1565.340216,1489.222222,1428.6706,1572.837758,1619.622419,1454.324484,2031.977384,2039.509341,
321,1384.345133,1446.747296,1301.325467,1617.966568,1538.66175,1499.296952,1406.252704,1488.861357,1293.772861,1393.173058,1440.409046,1495.842675,1410.804326,1374.449361,1507.396264,1538.652901,1390.414946,1909.900688,1931.19764,
329,1360.974435,1384.26647,1249.826942,1539.220256,1459.166175,1456.409046,1367.836775,1448.755162,1242.380531,1334.025565,1388.113078,1434.6765,1343.560472,1335.208456,1451.220256,1462.469027,1340.053097,1780.268437,1826.545723,
337,1340.66175,1329.302852,1188.006883,1471.078663,1371.031465,1412.405113,1335.046214,1419.101278,1200.07473,1282.845624,1346.308751,1380.501475,1288.316618,1310.60177,1401.939036,1393.839725,1301.193707,1643.60472,1727.795477,
345,1317.256637,1283.856441,1110.717797,1415.405113,1282.833825,1361.537856,1302.879056,1395.764995,1166.79056,1237.668633,1312.750246,1331.233038,1244.705015,1298.440511,1357.694199,1335.549656,1271.286136,1497.092429,1634.879056,
353,1289.012783,1249.422812,1014.490659,1372.550639,1201.935103,1298.034415,1268.053097,1373.573255,1141.490659,1195.525074,1284.6706,1285.927237,1211.117994,1294.500492,1316.86824,1288.33825,1247.705998,1338.813176,1550.249754,
361,1253.496559,1226.151426,902.122911,1342.679449,1143.101278,1219.686332,1231.022616,1350.176991,1121.916421,1153.151426,1261.054081,1246.408063,1185.421829,1292.876106,1278.756146,1252.672566,1228.941986,1173.297935,1474.373648,
