ID,2002,2003,2004,2005,2006,2007,2008,2009,2010,2011,2012,2013,2014,2015,2016,2017,2018,2019,2020,2021
1,,1649.741206,1766.475712,1824.428811,1806.613065,1959.831658,1491.133166,1885.198492,2153.390285,1948.153266,1914.637353,2011.018425,2074.833333,1908.956449,2046.875209,2110.262144,2092.773869,2157.085427,2361.070352,2340.059464
9,,1634.641541,1764.5067,1811.979899,1806.098827,1946.952261,1346.740369,1940.967337,2193.825796,1948.126466,1866.360972,1995.5134,2019.664992,1917.927136,2004.778057,2100.118928,2063.731993,2160.367672,2308.927973,2295.534338
17,,1655.376884,1783.985762,1823.652429,1826.835846,1965.229481,1263.386097,2033.602178,2262.036851,1963.999162,1825.077052,2019.008375,1979.743719,1962.621441,1994.855946,2095.167504,2068.272194,2186.747069,2296.142379,2274.478224
25,,1713.946399,1828.429648,1869.763819,1872.730318,2018.585427,1262.346734,2171.438861,2355.891122,1998.043551,1791.771357,2082.5067,1961.183417,2046.443886,2020.841709,2102.358459,2111.007538,2245.592965,2329.938023,2280.335008
33,,1811.647404,1899.074539,1956.887772,1950.409548,2109.41876,1344.624791,2361.118928,2473.977387,2054.183417,1776.306533,2184.132328,1976.890285,2169.440536,2088.985762,2134.647404,2194.381072,2340.049414,2418.930486,2313.097152
41,,1949.553601,1995.500838,2087.040201,2064.036013,2235.133166,1490.734506,2605.163317,2615.186767,2137.227806,1789.955611,2321.243719,2037.81072,2330.404523,2204.649916,2202.893635,2322.078727,2475.832496,2569.21273,2369.913735
49,,2131.919598,2122.265494,2260.440536,2211.645729,2395.242044,1681.396985,2898.535176,2783.575377,2251.894472,1843.482412,2494.732831,2148.980737,2525.248744,2370.505863,2315.762982,2495.235343,2664.102178,2783.613065,2444.956449
57,,2358.033501,2279.917923,2469.243719,2391.342546,2589.387772,1914.170017,3228.245394,2980.644891,2407.716918,1946.18258,2699.508375,2312.069514,2756.241206,2583.264657,2478.448074,2711.308208,2912.640704,3058.237018,2530.749581
65,,2622.517588,2465.745394,2698.555276,2598.195142,2818.463987,2186.086265,3578.809883,3205.393635,2612.423786,2102.628141,2933.439698,2526.030988,3021.571189,2840.596315,2696.005863,2965.462312,3223.438861,3384.88861,2620.495812
73,,2911.347571,2671.18928,2925.41541,2825.056114,3076.266332,2490.640704,3931.70603,3451.227806,2866.624791,2313.225293,3189.744556,2784.654104,3313.976549,3130.527638,2965.520101,3244.381072,3588.544389,3746.598827,2712.865159
81,,3200.927136,2888.469849,3148.438023,3060.412898,3350.052764,2814.047739,4262.471524,3705.517588,3162.851759,2575.450586,3457.774707,3077.427136,3619.741206,3435.845059,3273.082915,3536.264657,3986.397822,4118.510888,
89,,3465.484925,3108.159129,3364.232831,3286.809045,3619.5,3133.788107,4536.938023,3955.424623,3482.406198,2879.491625,3718.756281,3386.654104,3921.753769,3737.326633,3591.530151,3820.344221,4378.10804,4474.134841,
97,,3691.144891,3316.951424,3569.453099,3484.159129,3858.251256,3418.113065,4733.318258,4186.50335,3799.839196,3208.538526,3953.861809,3689.363484,4202.051926,4015.767169,3897.613065,4075.000838,4719.342546,4787.525126,
105,,3862.475712,3502.237018,3753.110553,3645.704355,4048.083752,3651.59464,4845.21273,4378.087102,4080.049414,3540.504188,4139.804858,3968.077889,4437.622278,4250.366834,4172.545226,4283.579564,4970.816583,5041.187605,
113,,3975.750419,3649.01675,3896.257119,3765.001675,4174.051926,3827.214405,4876.920436,4508.713568,4293.350921,3851.525126,4273.745394,4207.520938,4615.88861,4427.168342,4394.08124,4431.588777,5138.374372,5223.015075,
121,,4036.561139,3745.942211,3995.438023,3837.358459,4236.164154,3939.380235,4835.716918,4573.779732,4426.975712,4112.304858,4358.617253,4390.380235,4733.218593,4541.627303,4554.332496,4521.329146,5233.450586,5324.500838,
129,,4052.137353,3789.598827,4049.136516,3862.198492,4245.911223,3987.865997,4744.362647,4573.000838,4484.551089,4307.963987,4402.153266,4506.606365,4788.819095,4589.353434,4648.510888,4559.235343,5269.383585,5356.09799,
137,,4029.812395,3787.538526,4061.871859,3845.175042,4215.551089,3978.958124,4624.062814,4520.834171,4479.890285,4427.842546,4412.10134,4554.316583,4790.197655,4583.184255,4681.01675,4554.755444,5262.391122,5337.088777,
145,,3978.69933,3751.338358,4038.750419,3795.028476,4156.897822,3925.465662,4494.0067,4437.537688,4431.819095,4482.424623,4395.270519,4540.596315,4752.10804,4541.59464,4669.826633,4519.127303,5224.752931,5286.436348,
153,,3908.494137,3693.0067,3991.170854,3720.107203,4083.862647,3838.372697,4369.078727,4341.830821,4359.837521,4485.937186,4360.541876,4492.037688,4691.714405,4481.492462,4631.186767,4466.667504,5165.025126,5220.554439,
161,,3828.421273,3623.29397,3929.491625,3631.275544,4007.129816,3737.381072,4256.575377,4246.368509,4276.937186,4452.660804,4318.018425,4425.583752,4617.887772,4414.984925,4577.998325,4405.733668,5090.610553,5153.075377,
169,,3746.958124,3548.638191,3861.185092,3537.248744,3931.717755,3634.943886,4158.938023,4158.270519,4189.653266,4396.270519,4270.203518,4352.120603,4537.431323,4348.694305,4518.953099,4341.30402,5011.917923,5089.926298,
177,,3670.779732,3474.912898,3792.529313,3446.590452,3859.930486,3538.151591,4074.694305,4082.812395,4104.427136,4325.879397,4217.238693,4276.910385,4455.685092,4288.0,4459.821608,4275.334171,4936.040201,5036.923786,
185,3262.320771,3604.381072,3405.050251,3726.848409,3363.484925,3795.382747,3449.669179,4001.38526,4020.974037,4025.144054,4249.747906,4163.135678,4202.661642,4375.049414,4235.953936,4402.28057,4211.622278,4866.876047,4994.252931,
193,3236.952261,3548.391122,3339.558626,3667.857621,3287.555276,3738.18928,3370.19933,3938.720268,3969.112228,3956.392797,4172.765494,4108.243719,4131.038526,4297.745394,4191.027638,4349.253769,4152.608878,4806.338358,4959.40871,
201,3210.798157,3502.322446,3278.053601,3616.140704,3217.663317,3686.504188,3295.561139,3884.832496,3921.501675,3896.822446,4098.253769,4051.446399,4064.462312,4226.024288,4149.184255,4300.102178,4100.308208,4754.872697,4927.441374,
209,3183.599665,3463.927973,3222.51005,3570.347571,3154.968174,3637.348409,3222.661642,3840.123116,3874.71273,3845.70603,4027.534338,3993.784757,4001.664154,4159.020101,4108.550251,4254.422948,4052.855109,4712.422948,4895.725293,
217,3154.907873,3428.434673,3171.504188,3527.779732,3098.40536,3587.634003,3151.409548,3802.803183,3825.265494,3798.500838,3960.225293,3936.416248,3940.106365,4096.553601,4065.519263,4209.318258,4007.215243,4674.469849,4859.830821,
225,3124.443049,3391.289782,3122.635678,3486.122278,3048.252094,3534.962312,3081.742044,3768.767169,3771.752094,3752.518425,3895.70603,3878.200168,3876.99665,4039.90536,4016.5067,4159.849246,3959.279732,4634.59464,4814.619765,
233,3091.184255,3349.798995,3070.617253,3441.08124,3001.242881,3477.524288,3011.455611,3733.135678,3709.750419,3704.249581,3835.077889,3814.10804,3811.149916,3987.435511,3958.107203,4100.79062,3906.671692,4584.653266,4753.147404,
241,3055.578727,3301.158291,3015.690117,3388.722781,2953.120603,3411.574539,2936.549414,3690.921273,3638.564489,3651.974037,3775.279732,3743.850921,3739.927136,3937.298157,3889.323283,4028.372697,3847.534338,4520.970687,4670.876047,
249,3014.463149,3243.616415,2955.41876,3326.463987,2902.20268,3335.299832,2854.912898,3637.379397,3557.504188,3594.068677,3712.783082,3665.874372,3660.887772,3887.875209,3807.494137,3940.240369,3779.177554,4442.429648,4564.805695,
257,2966.247069,3175.176717,2890.543551,3252.927973,2848.904523,3245.759631,2766.375209,3566.092965,3468.309045,3529.693467,3642.028476,3579.613065,3573.91541,3837.149916,3711.623116,3834.889447,3697.372697,4349.79732,4434.288107,
265,2913.079564,3095.507538,2819.644891,3165.890285,2795.177554,3139.838358,2673.606365,3474.953936,3370.080402,3457.417923,3555.577889,3487.372697,3481.258794,3782.960637,3600.193467,3711.680905,3601.391122,4241.271357,4280.868509,
273,2856.582915,3003.230318,2741.041876,3066.064489,2744.169179,3015.960637,2577.649916,3363.929648,3264.146566,3379.0067,3450.168342,3389.968174,3383.642379,3719.965662,3474.91876,3578.586265,3489.117253,4119.607203,4107.988275,
281,2798.422111,2900.373534,2653.956449,2953.802345,2696.098827,2881.243719,2480.938861,3234.269682,3149.456449,3292.363484,3328.897822,3289.556951,3278.001675,3642.048576,3337.315745,3442.758794,3360.338358,3986.257119,3920.579564,
289,2736.678392,2787.554439,2560.284757,2830.177554,2650.823283,2741.407035,2385.321608,3087.009213,3025.799832,3193.861809,3194.402848,3185.916248,3157.554439,3541.98325,3188.88526,3308.060302,3214.336683,3838.886935,3722.942211,
297,2665.852596,2668.666667,2461.794807,2694.854271,2604.867672,2605.109715,2291.071189,2926.942211,2891.716918,3079.047739,3053.335846,3077.448911,3015.984087,3406.417923,3031.128978,3176.252094,3055.5,3674.668342,3523.452261,
305,2576.448911,2542.270519,2362.366834,2554.021776,2551.808208,2477.550251,2199.058626,2761.145729,2749.144891,2939.943886,2909.492462,2961.299832,2850.320771,3225.549414,2866.825796,3046.067839,2884.742881,3491.90536,3334.80402,
313,2460.322446,2405.740369,2264.115578,2411.096315,2485.19598,2362.668342,2111.610553,2604.154104,2601.701843,2773.955611,2766.161642,2837.865997,2673.397822,3024.226968,2705.932161,2913.359296,2717.39866,3301.680905,3162.09464,
321,2322.262982,2264.990787,2171.829146,2271.365997,2405.080402,2258.919598,2032.371022,2465.256281,2455.045226,2600.537688,2624.654941,2709.069514,2496.833333,2822.255444,2555.268844,2776.113903,2564.379397,3114.272194,3004.468174,
329,2173.39531,2129.984925,2087.252931,2143.537688,2312.637353,2160.843384,1965.409548,2348.29397,2315.478224,2432.593802,2486.739531,2578.222781,2332.128141,2634.153266,2421.432161,2633.592965,2432.954774,2938.930486,2863.384422,
337,2027.897822,2010.147404,2012.498325,2032.904523,2220.721106,2059.748744,1911.799832,2254.639028,2192.417923,2280.914573,2357.860972,2451.350084,2188.38526,2467.160804,2310.139866,2492.062814,2327.536851,2781.756281,2734.956449,
345,1895.742881,1911.488275,1948.973199,1943.223618,2136.00335,1944.876884,1875.0,2188.277219,2091.867672,2152.196817,2240.551926,2334.664992,2072.525126,2325.146566,2225.228643,2359.428811,2249.644054,2646.525963,2619.948074,
353,1784.5134,1838.11139,1897.325796,1875.962312,2061.108878,1810.000838,1856.907873,2150.740369,2017.645729,2050.477387,2139.510888,2232.440536,1986.842546,2208.51675,2166.743719,2244.678392,2198.134003,2532.919598,2515.596315,
361,1700.68258,1790.414573,1854.69263,1830.322446,1999.69263,1653.978224,1858.933836,2139.676717,1970.350084,1973.371859,2060.840034,2145.570352,1932.367672,2116.376047,2130.465662,2154.247906,2168.705193,2437.39196,2418.988275,
