ID,2002,2003,2004,2005,2006,2007,2008,2009,2010,2011,2012,2013,2014,2015,2016,2017,2018,2019,2020,2021
1,,1458.232558,1645.651163,1768.325581,1448.27907,1605.488372,1256.034884,1532.976744,1769.034884,1592.976744,1529.104651,1734.488372,1489.767442,1637.965116,2166.465116,1633.55814,1625.94186,1824.627907,1773.55814,1644.313953
9,,1468.976744,1681.802326,1811.813953,1479.662791,1617.511628,1139.639535,1572.94186,1772.174419,1594.22093,1516.127907,1736.546512,1450.023256,1654.604651,2195.744186,1638.418605,1597.709302,1850.406977,1754.44186,1644.5
17,,1502.72093,1731.325581,1869.627907,1541.151163,1654.790698,1080.337209,1634.093023,1804.0,1607.05814,1514.081395,1772.976744,1426.034884,1693.360465,2240.22093,1654.244186,1593.209302,1893.77907,1759.244186,1667.244186
25,,1561.697674,1797.209302,1944.453488,1640.174419,1718.790698,1090.767442,1725.709302,1869.593023,1632.360465,1528.94186,1846.895349,1429.965116,1761.546512,2295.5,1682.372093,1619.627907,1957.744186,1795.360465,1710.569767
33,,1651.674419,1882.918605,2045.290698,1780.174419,1813.197674,1166.05814,1857.197674,1971.488372,1674.732558,1572.604651,1957.209302,1481.5,1866.267442,2367.732558,1737.0,1681.267442,2046.476744,1869.232558,1774.581395
41,,1776.534884,1989.093023,2175.406977,1959.697674,1937.104651,1291.72093,2031.151163,2111.802326,1735.093023,1654.476744,2100.55814,1573.976744,2011.523256,2463.360465,1831.104651,1778.965116,2163.802326,1985.290698,1857.686047
49,,1934.093023,2112.965116,2338.27907,2173.709302,2093.430233,1434.453488,2245.755814,2290.965116,1816.872093,1780.593023,2276.034884,1705.406977,2196.906977,2581.709302,1971.476744,1911.488372,2314.5,2144.104651,1959.476744
57,,2126.476744,2247.011628,2525.744186,2413.744186,2281.883721,1591.116279,2494.372093,2503.453488,1922.825581,1955.476744,2476.104651,1871.511628,2404.488372,2713.034884,2162.116279,2071.0,2499.511628,2344.686047,2074.465116
65,,2349.023256,2387.267442,2719.732558,2670.034884,2498.488372,1762.313953,2762.872093,2740.174419,2057.22093,2178.313953,2687.05814,2066.709302,2628.546512,2843.197674,2401.604651,2246.872093,2713.965116,2581.22093,2197.465116
73,,2587.918605,2525.511628,2891.22093,2923.697674,2731.05814,1944.453488,3028.093023,2987.988372,2216.860465,2439.732558,2883.569767,2280.511628,2860.209302,2961.744186,2678.453488,2423.744186,2943.988372,2836.732558,2320.848837
81,,2823.337209,2646.55814,3017.395349,3149.05814,2958.906977,2132.883721,3259.918605,3224.267442,2391.174419,2721.139535,3040.976744,2497.418605,3086.546512,3054.023256,2969.151163,2582.5,3167.94186,3091.546512,
89,,3033.093023,2740.232558,3094.081395,3311.988372,3152.0,2316.093023,3422.418605,3423.837209,2559.674419,2993.77907,3160.488372,2708.127907,3281.383721,3109.127907,3240.046512,2717.639535,3350.127907,3317.325581,
97,,3201.767442,2800.453488,3129.732558,3399.406977,3295.546512,2482.883721,3512.72093,3572.081395,2707.476744,3214.616279,3248.255814,2897.406977,3421.034884,3131.465116,3464.906977,2822.627907,3486.337209,3509.255814,
105,,3307.662791,2823.604651,3128.674419,3419.0,3377.767442,2618.093023,3537.093023,3652.465116,2813.337209,3376.232558,3304.976744,3045.255814,3492.023256,3126.232558,3615.872093,2891.848837,3568.825581,3654.604651,
113,,3340.302326,2813.313953,3099.534884,3388.151163,3401.05814,2708.372093,3501.94186,3662.023256,2876.965116,3475.593023,3326.127907,3147.116279,3494.453488,3106.255814,3685.813953,2931.627907,3605.0,3746.406977,
121,,3307.011628,2775.697674,3048.94186,3322.139535,3374.209302,2754.674419,3421.790698,3616.883721,2896.523256,3524.197674,3322.023256,3203.895349,3453.232558,3080.604651,3678.883721,2951.453488,3604.790698,3782.209302,
129,,3225.395349,2719.395349,2981.465116,3238.767442,3314.081395,2767.151163,3316.27907,3541.732558,2884.05814,3532.302326,3302.139535,3219.127907,3387.453488,3053.639535,3623.232558,2958.360465,3581.686047,3759.94186,
137,,3116.918605,2653.988372,2906.976744,3150.627907,3235.627907,2755.77907,3204.418605,3455.697674,2851.965116,3511.883721,3272.674419,3200.55814,3311.674419,3027.093023,3541.639535,2956.534884,3546.965116,3711.209302,
145,,3001.453488,2590.627907,2833.046512,3066.360465,3153.174419,2726.872093,3101.848837,3371.534884,2809.930233,3471.837209,3236.767442,3156.732558,3236.709302,3003.046512,3451.767442,2952.127907,3509.453488,3657.709302,
153,,2892.186047,2534.651163,2767.465116,2989.069767,3073.94186,2686.755814,3016.837209,3296.0,2762.604651,3423.337209,3195.093023,3098.27907,3167.837209,2981.813953,3363.883721,2949.732558,3475.139535,3612.604651,
161,,2797.290698,2487.976744,2714.023256,2921.732558,3001.732558,2640.488372,2951.046512,3232.348837,2714.011628,3373.616279,3148.755814,3031.523256,3103.825581,2963.44186,3284.662791,2948.534884,3449.093023,3583.837209,
169,,2719.767442,2451.639535,2673.569767,2863.860465,2940.674419,2593.44186,2901.953488,3180.534884,2665.906977,3325.813953,3098.174419,2961.081395,3041.546512,2942.348837,3214.930233,2945.534884,3433.116279,3573.802326,
177,,2660.174419,2423.72093,2647.953488,2812.837209,2891.476744,2545.44186,2866.034884,3138.116279,2618.174419,3277.709302,3042.767442,2891.162791,2975.953488,2916.465116,3154.883721,2935.116279,3424.023256,3579.046512,
185,2311.05814,2617.930233,2400.081395,2635.209302,2764.767442,2852.5,2497.360465,2838.395349,3106.325581,2571.953488,3226.709302,2982.023256,2823.093023,2908.325581,2882.290698,3100.686047,2919.023256,3417.674419,3592.0,
193,2297.430233,2590.476744,2377.895349,2631.616279,2717.430233,2818.755814,2450.0,2815.895349,3076.604651,2528.046512,3174.255814,2917.511628,2757.255814,2846.651163,2841.930233,3055.662791,2902.05814,3410.127907,3606.046512,
201,2282.104651,2571.255814,2352.011628,2634.162791,2667.674419,2785.802326,2402.465116,2797.139535,3042.046512,2484.674419,3120.046512,2852.639535,2694.72093,2794.139535,2795.604651,3018.77907,2887.837209,3401.546512,3617.546512,
209,2261.709302,2554.674419,2318.418605,2638.488372,2617.651163,2748.976744,2351.860465,2779.686047,3001.825581,2440.255814,3066.662791,2789.383721,2635.023256,2751.383721,2744.825581,2987.534884,2874.639535,3390.848837,3622.174419,
217,2234.255814,2534.976744,2276.127907,2636.093023,2565.965116,2706.686047,2296.116279,2760.255814,2955.895349,2395.872093,3011.348837,2726.906977,2576.488372,2715.244186,2689.139535,2958.709302,2859.44186,3375.05814,3617.965116,
225,2201.05814,2509.430233,2226.232558,2620.511628,2511.197674,2658.976744,2240.22093,2734.790698,2907.5,2351.790698,2953.395349,2662.872093,2515.813953,2682.151163,2631.418605,2928.244186,2842.0,3351.906977,3602.116279,
233,2161.651163,2474.872093,2170.255814,2589.046512,2451.034884,2603.360465,2181.94186,2701.94186,2856.697674,2306.0,2892.453488,2595.546512,2453.813953,2646.069767,2573.27907,2890.116279,2820.709302,3318.837209,3571.395349,
241,2114.860465,2431.802326,2108.27907,2540.72093,2384.186047,2538.744186,2119.255814,2661.825581,2804.104651,2256.732558,2830.325581,2527.151163,2392.569767,2607.476744,2513.023256,2842.430233,2794.395349,3274.069767,3521.77907,
249,2060.046512,2380.732558,2041.453488,2474.523256,2313.406977,2463.139535,2052.883721,2615.627907,2747.639535,2198.011628,2768.197674,2458.662791,2331.104651,2566.581395,2448.860465,2785.802326,2760.290698,3218.604651,3452.476744,
257,2001.313953,2323.476744,1970.813953,2393.767442,2241.883721,2376.22093,1982.837209,2562.244186,2682.290698,2129.686047,2705.697674,2392.360465,2267.255814,2527.186047,2382.476744,2718.325581,2717.895349,3153.697674,3365.581395,
265,1941.05814,2261.023256,1897.755814,2302.651163,2172.05814,2281.488372,1910.05814,2500.639535,2606.546512,2057.116279,2640.918605,2328.511628,2202.127907,2492.244186,2313.488372,2640.895349,2665.44186,3079.813953,3263.290698,
273,1881.709302,2193.848837,1827.767442,2206.27907,2106.94186,2183.151163,1834.046512,2429.546512,2525.523256,1986.0,2575.918605,2269.313953,2138.023256,2462.709302,2240.686047,2555.674419,2601.116279,2997.732558,3146.55814,
281,1826.023256,2119.523256,1764.360465,2108.151163,2051.0,2086.093023,1759.523256,2348.476744,2439.511628,1921.755814,2510.639535,2214.081395,2077.395349,2435.906977,2161.674419,2468.337209,2521.453488,2909.651163,3019.77907,
289,1775.651163,2036.732558,1712.093023,2009.755814,2006.895349,1997.511628,1687.127907,2263.511628,2348.244186,1866.802326,2445.848837,2157.802326,2018.94186,2408.372093,2078.604651,2380.616279,2423.244186,2817.5,2886.77907,
297,1730.988372,1949.674419,1673.069767,1915.023256,1973.593023,1922.127907,1619.476744,2179.802326,2250.232558,1819.94186,2382.616279,2092.255814,1963.534884,2379.94186,1994.348837,2297.418605,2311.906977,2719.337209,2750.255814,
305,1691.895349,1864.77907,1647.534884,1825.744186,1946.011628,1861.662791,1559.255814,2101.965116,2145.488372,1779.953488,2319.848837,2017.697674,1910.22093,2347.081395,1912.686047,2220.104651,2199.046512,2610.709302,2609.790698,
313,1655.488372,1786.825581,1633.965116,1743.511628,1916.72093,1816.151163,1508.976744,2031.046512,2037.546512,1745.581395,2252.604651,1939.523256,1855.802326,2305.732558,1836.918605,2146.593023,2093.05814,2487.883721,2461.988372,
321,1619.872093,1719.755814,1626.302326,1668.55814,1875.988372,1781.325581,1473.22093,1967.127907,1931.44186,1714.290698,2176.383721,1862.767442,1798.662791,2258.697674,1772.790698,2069.290698,2000.639535,2350.639535,2308.081395,
329,1583.837209,1666.05814,1629.302326,1602.139535,1815.872093,1749.581395,1454.430233,1913.94186,1833.034884,1682.255814,2087.383721,1790.27907,1744.44186,2214.976744,1722.209302,1979.686047,1922.651163,2211.348837,2152.790698,
337,1549.313953,1628.209302,1644.372093,1545.05814,1750.77907,1709.360465,1451.825581,1871.883721,1748.255814,1648.290698,1994.686047,1720.616279,1698.534884,2180.372093,1684.860465,1887.523256,1863.732558,2081.581395,2005.825581,
345,1519.651163,1608.476744,1670.337209,1497.662791,1691.709302,1641.825581,1462.593023,1839.511628,1681.546512,1611.395349,1902.883721,1654.94186,1665.197674,2156.883721,1660.418605,1802.860465,1827.27907,1969.22093,1875.430233,
353,1490.069767,1607.348837,1701.569767,1461.697674,1645.418605,1536.05814,1482.093023,1812.395349,1634.186047,1578.069767,1822.965116,1594.5,1644.976744,2147.5,1645.686047,1729.116279,1812.197674,1879.430233,1768.162791,
361,1466.825581,1621.837209,1733.569767,1444.093023,1615.081395,1397.093023,1503.569767,1786.011628,1605.360465,1550.034884,1764.046512,1538.790698,1635.930233,2150.313953,1635.813953,1670.034884,1811.011628,1814.302326,1693.476744,
