ID,2002,2003,2004,2005,2006,2007,2008,2009,2010,2011,2012,2013,2014,2015,2016,2017,2018,2019,2020,2021
1,,11.25,-280.25,-343.1666667,27.5833333,-214.25,-68.1666667,66.5833333,-197.0833333,811.8333333,-197.1666667,-180.0833333,121.75,-9.0833333,130.6666667,109.8333333,1675.0833333,-174.6666667,-77.0,-126.25
9,,-76.9166667,-336.1666667,-403.6666667,-90.0833333,-265.8333333,-149.3333333,-119.75,-274.5833333,601.6666667,-226.6666667,-235.5,20.5833333,-67.25,-26.0,-12.0,1280.75,-253.0833333,-213.8333333,-159.4166667
17,,-142.1666667,-363.1666667,-436.0,-180.4166667,-307.1666667,-183.5833333,-251.4166667,-327.0833333,385.1666667,-240.9166667,-261.0,-63.4166667,-108.75,-123.75,-113.0,912.9166667,-308.5,-303.6666667,-170.1666667
25,,-186.9166667,-363.0833333,-445.25,-242.9166667,-339.6666667,-171.0,-335.0,-359.4166667,187.0833333,-237.4166667,-260.5833333,-133.0833333,-125.1666667,-155.1666667,-183.25,610.8333333,-344.9166667,-351.8333333,-163.5833333
33,,-211.5833333,-330.6666667,-433.0,-270.5,-360.25,-111.5833333,-379.0833333,-368.5,26.25,-209.6666667,-229.4166667,-180.1666667,-107.0833333,-115.4166667,-213.3333333,398.5833333,-357.8333333,-363.25,-142.3333333
41,,-216.3333333,-263.25,-400.4166667,-261.3333333,-365.6666667,-6.3333333,-392.0833333,-348.1666667,-87.1666667,-152.8333333,-163.0833333,-199.5833333,-46.25,-2.75,-199.4166667,288.8333333,-344.25,-340.8333333,-109.8333333
49,,-192.1666667,-156.1666667,-343.3333333,-210.1666667,-348.8333333,146.25,-377.75,-289.5833333,-146.25,-62.9166667,-56.75,-187.4166667,64.3333333,181.25,-135.9166667,285.5,-296.5,-279.25,-66.6666667
57,,-134.3333333,-9.0833333,-256.25,-118.5833333,-304.8333333,338.9166667,-338.5,-185.4166667,-147.4166667,61.4166667,90.4166667,-145.4166667,225.1666667,433.1666667,-20.5833333,384.9166667,-207.0833333,-175.1666667,-12.25
65,,-38.1666667,174.5833333,-134.3333333,12.5,-227.8333333,559.9166667,-266.5,-31.6666667,-90.5833333,220.6666667,276.0833333,-73.25,435.0833333,741.6666667,147.9166667,577.25,-67.4166667,-23.75,52.25
73,,98.6666667,385.8333333,24.25,178.3333333,-109.3333333,787.1666667,-157.75,170.75,21.9166667,408.4166667,491.4166667,36.1666667,686.75,1087.75,365.1666667,838.3333333,125.75,174.8333333,122.9166667
81,,274.3333333,608.25,220.6666667,371.8333333,57.75,995.3333333,-9.6666667,414.1666667,184.3333333,615.0833333,722.1666667,186.5,962.0,1442.3333333,622.8333333,1130.25,369.5833333,417.5833333,
89,,481.75,824.0,451.0833333,584.1666667,272.8333333,1170.8333333,175.9166667,683.0,386.3333333,825.5,948.25,376.0,1238.3333333,1757.8333333,901.0833333,1415.25,652.0833333,696.4166667,
97,,708.5,1015.5833333,706.0,797.8333333,527.4166667,1302.9166667,393.1666667,957.0833333,614.3333333,1028.25,1146.25,596.9166667,1485.3333333,1970.5,1168.0,1645.0,951.1666667,994.1666667,
105,,935.0,1179.9166667,967.9166667,1007.0,805.4166667,1403.0,632.3333333,1216.4166667,851.3333333,1221.25,1313.5,835.8333333,1664.9166667,2089.9166667,1380.4166667,1795.9166667,1236.4166667,1282.8333333,
113,,1134.3333333,1317.1666667,1209.0833333,1197.8333333,1085.75,1480.0833333,879.5,1450.3333333,1076.5833333,1401.5833333,1456.0833333,1074.4166667,1790.5833333,2147.25,1544.0833333,1892.75,1494.1666667,1521.25,
121,,1294.5833333,1434.5833333,1419.5833333,1359.9166667,1344.75,1538.8333333,1122.3333333,1651.0,1274.0833333,1562.25,1573.0,1288.0,1869.0833333,2162.8333333,1667.5833333,1952.9166667,1714.3333333,1706.6666667,
129,,1418.6666667,1535.5,1596.75,1486.6666667,1562.75,1582.0,1344.5,1812.25,1433.6666667,1695.0,1664.9166667,1468.5833333,1910.5,2141.4166667,1755.8333333,1986.0,1884.3333333,1836.5,
137,,1506.8333333,1619.0833333,1737.3333333,1575.0833333,1724.8333333,1608.6666667,1531.4166667,1925.5,1551.1666667,1785.75,1731.1666667,1609.5833333,1919.5833333,2100.3333333,1810.25,2000.6666667,2007.9166667,1921.25,
145,,1557.8333333,1682.25,1831.0,1628.4166667,1814.5,1620.0833333,1666.6666667,1997.25,1618.75,1835.8333333,1767.5833333,1702.1666667,1895.8333333,2046.1666667,1828.1666667,1998.0,2076.75,1970.25,
153,,1576.8333333,1716.4166667,1879.25,1648.75,1839.8333333,1614.4166667,1759.9166667,2029.0833333,1640.75,1856.1666667,1768.5,1750.0,1851.8333333,1981.25,1812.0,1979.6666667,2093.1666667,1987.9166667,
161,,1575.4166667,1713.75,1882.0833333,1634.9166667,1820.25,1588.3333333,1810.8333333,2025.0,1629.0,1853.4166667,1742.5,1758.75,1796.0833333,1906.4166667,1773.9166667,1947.6666667,2068.0833333,1978.4166667,
169,,1559.8333333,1680.5,1852.8333333,1601.5,1771.25,1548.0833333,1817.0,1993.8333333,1594.4166667,1830.0,1698.0833333,1739.9166667,1734.0,1823.5,1723.5833333,1903.5833333,2007.5,1949.0833333,
177,,1534.0833333,1627.1666667,1804.5,1556.5,1704.3333333,1499.25,1789.0833333,1939.4166667,1547.0833333,1788.8333333,1644.25,1700.9166667,1672.0833333,1733.3333333,1667.9166667,1848.0833333,1925.3333333,1902.5,
185,1368.75,1498.4166667,1565.0,1747.1666667,1508.9166667,1630.3333333,1445.75,1740.4166667,1861.75,1494.0833333,1739.0,1588.25,1649.9166667,1616.9166667,1642.25,1611.75,1785.5,1835.5833333,1846.0833333,
193,1361.5833333,1452.1666667,1503.0833333,1686.25,1464.3333333,1555.9166667,1392.75,1679.0,1776.25,1442.8333333,1684.25,1535.5833333,1591.75,1569.8333333,1555.5833333,1556.1666667,1718.75,1750.8333333,1785.3333333,
201,1355.4166667,1403.5833333,1447.8333333,1624.6666667,1425.0833333,1485.6666667,1343.25,1614.9166667,1691.0833333,1396.6666667,1630.75,1489.6666667,1533.9166667,1529.8333333,1478.1666667,1500.6666667,1655.0833333,1675.5,1726.25,
209,1352.25,1357.3333333,1402.75,1564.25,1389.0,1422.25,1299.5833333,1551.9166667,1609.4166667,1358.75,1581.4166667,1453.25,1481.6666667,1491.8333333,1412.6666667,1448.75,1600.5,1613.4166667,1672.4166667,
217,1352.1666667,1316.6666667,1369.1666667,1503.25,1357.8333333,1367.75,1265.1666667,1495.8333333,1533.6666667,1329.4166667,1536.3333333,1425.8333333,1438.6666667,1453.0,1359.8333333,1400.5833333,1558.0,1566.4166667,1623.6666667,
225,1358.0,1283.25,1347.9166667,1446.3333333,1332.0,1325.1666667,1245.1666667,1449.5833333,1464.5,1309.3333333,1498.3333333,1405.5,1407.9166667,1416.1666667,1318.4166667,1358.5833333,1528.0,1536.8333333,1579.6666667,
233,1370.9166667,1257.6666667,1335.6666667,1395.5833333,1310.6666667,1293.0,1240.9166667,1413.0,1402.9166667,1296.5,1466.4166667,1389.8333333,1389.8333333,1383.75,1289.1666667,1321.8333333,1508.4166667,1527.8333333,1535.1666667,
241,1390.9166667,1239.6666667,1332.3333333,1354.3333333,1294.5833333,1271.3333333,1255.6666667,1383.9166667,1350.1666667,1288.75,1439.0,1381.4166667,1383.4166667,1358.8333333,1272.25,1293.0833333,1496.1666667,1539.8333333,1496.6666667,
249,1418.1666667,1226.9166667,1336.0,1321.6666667,1284.6666667,1256.6666667,1289.8333333,1361.0,1304.9166667,1281.5,1417.0,1382.1666667,1385.0833333,1342.0,1265.3333333,1272.5833333,1488.4166667,1572.1666667,1465.0,
257,1450.6666667,1218.1666667,1344.9166667,1296.0833333,1280.6666667,1249.5,1343.25,1342.0833333,1267.8333333,1269.75,1401.0,1393.5833333,1391.1666667,1332.0833333,1269.4166667,1265.9166667,1482.3333333,1624.8333333,1441.1666667,
265,1485.8333333,1209.1666667,1355.0833333,1273.8333333,1279.0,1249.4166667,1414.8333333,1324.25,1239.0,1247.1666667,1390.0,1417.0,1395.0,1327.5,1282.25,1276.75,1472.25,1694.3333333,1422.6666667,
273,1518.5,1197.6666667,1360.1666667,1252.5833333,1274.5,1256.6666667,1502.6666667,1308.0,1223.0833333,1209.4166667,1381.5833333,1449.9166667,1387.9166667,1328.3333333,1302.3333333,1308.5,1451.9166667,1776.25,1405.8333333,
281,1536.25,1177.0833333,1350.6666667,1227.9166667,1258.75,1265.5833333,1600.0,1290.0833333,1220.5833333,1145.25,1369.75,1484.4166667,1357.4166667,1331.8333333,1324.75,1366.5,1411.9166667,1860.25,1382.1666667,
289,1531.8333333,1140.3333333,1316.4166667,1195.3333333,1218.8333333,1270.9166667,1697.4166667,1266.8333333,1230.25,1045.3333333,1345.25,1510.8333333,1291.0833333,1334.75,1344.8333333,1455.1666667,1341.6666667,1928.9166667,1342.3333333,
297,1494.75,1074.0,1242.0,1141.75,1137.5833333,1259.9166667,1777.0833333,1227.9166667,1246.25,901.5833333,1293.8333333,1515.6666667,1177.3333333,1327.3333333,1352.0833333,1576.1666667,1234.8333333,1956.1666667,1271.8333333,
305,1412.1666667,968.8333333,1120.4166667,1063.1666667,1004.4166667,1222.4166667,1816.6666667,1162.25,1263.6666667,721.4166667,1198.0,1479.9166667,1026.5833333,1315.75,1332.75,1729.3333333,1091.6666667,1910.75,1161.0,
313,1274.0,813.6666667,941.4166667,957.1666667,816.3333333,1146.9166667,1782.0833333,1056.0,1274.1666667,532.0833333,1045.8333333,1383.5833333,861.1666667,1303.5,1272.5,1907.5833333,914.8333333,1751.4166667,998.6666667,
321,1099.0833333,625.8333333,717.6666667,841.0833333,608.0,1027.6666667,1675.3333333,899.5,1277.5833333,348.75,847.4166667,1213.9166667,699.8333333,1274.5833333,1167.25,2102.4166667,721.75,1507.3333333,790.25,
329,901.5,430.0833333,481.0,717.9166667,405.9166667,856.5833333,1495.1666667,689.75,1266.9166667,190.9166667,625.3333333,1004.0,550.0833333,1198.8333333,1011.5833333,2292.0,533.1666667,1221.25,573.25,
337,681.4166667,242.5833333,252.75,592.0,224.25,642.8333333,1236.0,463.0,1241.5,64.4166667,405.0833333,783.8333333,408.4166667,1034.0,814.5833333,2428.0,359.0833333,911.5,371.0833333,
345,468.5833333,71.0833333,50.0833333,460.9166667,70.4166667,424.4166667,919.8333333,247.5,1191.9166667,-31.25,205.3333333,577.4166667,276.5833333,818.5,610.75,2460.0,198.8333333,611.3333333,197.6666667,
353,282.1666667,-76.1666667,-119.1666667,314.4166667,-52.5,224.5833333,599.0,61.75,1110.25,-102.5,38.0,397.4166667,162.25,575.3333333,422.25,2314.8333333,51.9166667,340.0,56.75,
361,129.6666667,-193.6666667,-250.5,166.0833333,-146.0833333,57.75,308.4166667,-86.4166667,983.4166667,-156.3333333,-90.4166667,247.0,67.3333333,336.75,255.3333333,2042.0,-73.9166667,107.75,-50.0833333,
