ID,2002,2003,2004,2005,2006,2007,2008,2009,2010,2011,2012,2013,2014,2015,2016,2017,2018,2019,2020,2021
1,,1014.9419238,902.0036298,176.4482759,772.46098,-100.3085299,146.5045372,862.8166969,1055.353902,1124.584392,891.2450091,115.477314,780.7912886,1159.8421053,968.6805808,786.6950998,1141.3448276,512.646098,569.3012704,619.3629764
9,,986.7568058,846.1760436,23.9491833,599.6079855,-173.8965517,48.4010889,627.5662432,1052.3430127,1017.5154265,646.3357532,20.5462795,673.0689655,1127.5009074,883.6424682,569.923775,1122.5916515,297.0526316,395.6823956,734.9528131
17,,941.5426497,773.2450091,-74.7713249,527.938294,-210.9255898,8.8094374,428.1651543,999.9110708,841.1016334,429.1978221,-34.0163339,610.123412,1085.1324864,869.5245009,391.1578947,1099.4863884,124.2558984,291.6116152,840.9509982
25,,860.6370236,733.0254083,-134.6061706,583.1215971,-212.2032668,30.3629764,308.6315789,872.8366606,652.4482759,283.8747731,-61.1887477,531.4137931,1049.646098,924.7767695,269.3139746,1077.2214156,1.2214156,266.7912886,937.4990926
33,,814.1760436,739.8493648,-154.2667877,744.1633394,-175.2958258,114.7495463,290.107078,683.0453721,467.0453721,221.600726,-46.4337568,406.5462795,1021.9945554,989.676951,225.5263158,1062.4827586,-69.9909256,333.3375681,1025.0871143
41,,796.8784029,783.415608,-128.7931034,926.4355717,-109.9292196,277.8366606,367.9419238,545.9963702,343.6134301,232.4718693,30.6352087,325.676951,992.8130672,1055.9491833,266.5117967,1097.0235935,-97.9709619,487.1470054,1097.8820327
49,,842.4990926,878.0362976,-38.292196,1077.3375681,0.7749546,515.1597096,531.8348457,515.76951,311.2068966,327.2994555,199.4047187,339.1705989,951.784029,1115.862069,406.0163339,1135.5789474,-72.3575318,698.1088929,1155.2268603
57,,931.4736842,972.814882,128.5789474,1172.2813067,169.2014519,781.6914701,748.7023593,605.9038113,377.6696915,499.4319419,452.9419238,456.938294,932.7931034,1170.5862069,616.0508167,1162.8892922,15.7332123,870.9891107,1197.8366606
65,,1022.0254083,1056.2704174,377.2885662,1236.3901996,411.8656987,965.1324864,921.722323,792.6878403,560.5934664,721.2395644,742.4101633,668.4882033,999.0580762,1222.0,835.969147,1184.9655172,189.8656987,1015.9673321,1232.2105263
73,,1097.5426497,1132.2341198,664.2740472,1284.0871143,704.7332123,1094.4954628,1057.3575318,1000.7713249,800.9909256,956.4192377,993.6116152,917.7495463,1109.8602541,1260.3702359,1013.522686,1218.7713249,451.1633394,1138.4591652,1265.0580762
81,,1156.3448276,1203.5408348,875.3321234,1331.323049,968.9165154,1195.0725953,1162.4845735,1181.1197822,998.4047187,1133.9909256,1172.6751361,1118.6932849,1214.2704174,1303.7985481,1136.7096189,1269.553539,761.5771325,1240.9328494,
89,,1199.9673321,1267.4101633,1031.8656987,1381.4319419,1173.8330309,1285.061706,1249.7858439,1331.4646098,1153.5771325,1261.923775,1302.4210526,1266.969147,1304.0127042,1359.7604356,1229.0326679,1334.5771325,1008.5335753,1332.3212341,
97,,1243.9201452,1329.676951,1161.2958258,1436.3793103,1334.353902,1372.6660617,1328.615245,1461.0435572,1284.584392,1365.0889292,1409.0707804,1390.4646098,1388.9128857,1424.9981851,1311.0998185,1408.3629764,1203.0907441,1421.9618875,
105,,1294.6569873,1386.3375681,1277.0453721,1486.8693285,1465.5753176,1457.0399274,1409.7658802,1572.553539,1396.4537205,1457.4591652,1502.8802178,1502.2831216,1473.5789474,1493.4627949,1394.9909256,1483.6860254,1361.800363,1504.1760436,
113,,1352.6823956,1423.6987296,1387.7586207,1547.1560799,1575.4646098,1539.5063521,1499.1488203,1652.1107078,1501.1197822,1541.753176,1590.6896552,1609.4174229,1553.9800363,1563.5644283,1483.9546279,1558.399274,1501.6551724,1587.5045372,
121,,1417.1470054,1448.9219601,1492.0217786,1616.8856624,1658.1597096,1616.8747731,1597.7676951,1711.3012704,1603.8874773,1624.5989111,1665.061706,1709.845735,1628.569873,1634.0689655,1571.7604356,1628.7713249,1628.6642468,1675.2486388,
129,,1485.1324864,1467.2323049,1596.3321234,1688.1742287,1714.2105263,1684.3448276,1697.4355717,1758.9401089,1699.2486388,1698.3466425,1726.9183303,1793.3793103,1688.862069,1696.6642468,1651.0,1683.4083485,1740.6805808,1762.6116152,
137,,1546.3774955,1475.5898367,1701.2504537,1745.8965517,1745.261343,1732.6225045,1789.3774955,1798.3557169,1776.0943739,1762.1814882,1773.845735,1852.0,1736.2704174,1749.0108893,1708.9274047,1721.2903811,1840.3974592,1846.9401089,
145,,1597.8529946,1471.7295826,1803.0490018,1786.3393829,1757.0217786,1754.4210526,1857.4718693,1823.3684211,1823.3829401,1810.7676951,1807.3085299,1893.4119782,1758.722323,1781.7277677,1752.4646098,1743.1361162,1916.5880218,1925.5753176,
153,,1636.8058076,1460.0272232,1888.9836661,1803.1052632,1757.5172414,1748.3248639,1896.7259528,1826.2558984,1834.522686,1846.0852995,1824.0326679,1925.0,1762.8366606,1798.9509982,1782.3756806,1747.3829401,1966.3901996,1987.3248639,
161,,1659.7059891,1438.9655172,1939.185118,1789.2885662,1749.4355717,1718.1615245,1896.6206897,1793.0526316,1816.9165154,1862.0907441,1825.6642468,1944.3375681,1750.7205082,1799.892922,1790.5735027,1733.9201452,1989.4210526,2015.2958258,
169,,1666.8239564,1413.938294,1951.5753176,1752.8421053,1734.7713249,1675.9419238,1864.707804,1739.8021779,1781.7604356,1852.3139746,1810.5190563,1946.1869328,1722.2268603,1782.4174229,1781.6497278,1703.6279492,1987.9092559,2010.6515426,
177,,1658.7568058,1385.1125227,1933.6878403,1699.3049002,1708.6823956,1627.4192377,1810.2522686,1683.4954628,1736.1869328,1813.7749546,1780.5027223,1928.4791289,1677.5299456,1756.7404719,1758.9128857,1653.2885662,1967.2976407,1979.9709619,
185,1440.5499093,1633.1197822,1358.3829401,1892.4519056,1635.3411978,1676.0417423,1575.3484574,1742.0471869,1635.8475499,1684.4174229,1762.3629764,1738.508167,1884.6170599,1624.8130672,1728.030853,1724.9854809,1595.0399274,1932.4827586,1933.9292196,
193,1395.9909256,1597.6479129,1333.1324864,1833.0127042,1567.0707804,1637.6406534,1523.246824,1670.2250454,1602.2976407,1631.0580762,1706.1669691,1691.6787659,1821.2105263,1572.7277677,1694.7259528,1685.0018149,1535.2958258,1889.0453721,1882.2323049,
201,1354.2105263,1554.2395644,1309.0435572,1765.0054446,1496.1905626,1596.2976407,1470.9165154,1601.6588022,1578.4519056,1578.3212341,1648.5753176,1642.2250454,1752.9274047,1522.3321234,1660.8185118,1638.6642468,1475.4519056,1839.3139746,1825.1415608,
209,1316.8548094,1508.353902,1282.2522686,1695.8911071,1428.4537205,1551.9564428,1420.3629764,1541.1088929,1548.3901996,1523.1451906,1595.1397459,1586.7568058,1682.2123412,1473.1796733,1622.8874773,1593.0090744,1419.7114338,1782.323049,1768.399274,
217,1283.6860254,1460.4555354,1245.6206897,1629.6569873,1368.3030853,1505.9165154,1371.3339383,1487.1923775,1510.6061706,1471.5753176,1545.5952813,1527.5245009,1608.9274047,1425.0018149,1579.5027223,1549.6642468,1371.3430127,1720.0816697,1713.5136116,
225,1257.2686025,1412.7132486,1212.0980036,1570.1215971,1318.6751361,1462.1506352,1326.7676951,1440.7803993,1475.353902,1429.7713249,1499.4283122,1474.1324864,1541.5009074,1382.4646098,1525.9165154,1505.4047187,1328.6751361,1658.5934664,1663.4446461,
233,1237.7205082,1365.9110708,1185.8638838,1517.7041742,1280.4137931,1423.3049002,1288.8511797,1400.8838475,1444.3684211,1392.1088929,1453.5789474,1426.6606171,1482.600726,1345.3575318,1470.7059891,1463.9201452,1294.4827586,1602.4101633,1618.0326679,
241,1223.5426497,1324.8203267,1167.107078,1471.969147,1252.2994555,1387.8348457,1258.9183303,1363.1669691,1415.6497278,1365.1088929,1413.7876588,1387.2558984,1431.0471869,1315.0235935,1419.5898367,1424.3339383,1269.6932849,1551.9001815,1573.9491833,
249,1213.6061706,1289.8511797,1152.5716878,1432.4591652,1234.3266788,1358.4537205,1235.6279492,1328.9655172,1387.9183303,1346.969147,1379.7459165,1352.6805808,1389.6079855,1288.6170599,1373.4827586,1390.3865699,1254.3375681,1509.8384755,1533.8239564,
257,1204.8239564,1259.6388385,1142.0635209,1397.6188748,1225.3974592,1334.3702359,1219.6261343,1299.477314,1361.5499093,1333.8203267,1354.4682396,1323.9401089,1357.7912886,1267.061706,1333.9201452,1359.0181488,1243.9092559,1477.0127042,1493.9600726,
265,1198.4264973,1231.4283122,1135.4500907,1368.185118,1222.0235935,1314.5099819,1210.1288566,1274.9147005,1334.8257713,1322.4101633,1335.215971,1301.8548094,1334.292196,1250.076225,1302.753176,1330.9001815,1237.0653358,1451.2105263,1456.8275862,
273,1195.0344828,1206.1143376,1131.3647913,1343.4954628,1224.2341198,1297.4827586,1204.4337568,1254.2087114,1310.1742287,1312.4029038,1321.2994555,1284.1560799,1317.1669691,1237.7404719,1277.6188748,1306.3666062,1229.0381125,1425.4083485,1420.9147005,
281,1196.7059891,1185.5009074,1127.5281307,1322.3666062,1229.0689655,1283.8402904,1201.2250454,1237.3321234,1289.9001815,1302.9872958,1308.7803993,1270.8711434,1303.7785844,1232.0671506,1257.261343,1284.9963702,1222.5989111,1401.277677,1384.9800363,
289,1201.1088929,1168.1705989,1126.4428312,1304.4228675,1232.3375681,1270.3339383,1200.3520871,1221.8820327,1274.4718693,1294.907441,1295.2177858,1260.23049,1291.7150635,1231.9201452,1240.4900181,1264.0490018,1218.123412,1378.9673321,1343.384755,
297,1201.3974592,1155.4264973,1126.9419238,1291.5063521,1230.2087114,1257.1923775,1200.6842105,1205.0562613,1260.7749546,1286.1814882,1280.2722323,1252.9038113,1280.6533575,1235.5662432,1228.7441016,1245.7205082,1218.7676951,1356.4319419,1290.6969147,
305,1197.969147,1147.7785844,1126.8058076,1283.5353902,1217.137931,1240.2032668,1200.5317604,1184.6987296,1249.1488203,1278.9437387,1260.4900181,1246.7241379,1262.7803993,1235.0235935,1221.8294011,1228.9019964,1222.2123412,1327.5952813,1216.5934664,
313,1192.7658802,1142.2050817,1122.3448276,1279.1324864,1178.1306715,1214.3411978,1199.4392015,1160.9818512,1240.0036298,1271.1887477,1226.7332123,1241.8366606,1244.3448276,1219.0871143,1218.7186933,1215.3284936,1224.3520871,1293.1760436,1110.3012704,
321,1189.0998185,1132.6134301,1106.5335753,1273.6188748,1086.8366606,1168.4972777,1197.8675136,1127.907441,1232.3611615,1256.9491833,1165.9219601,1234.5117967,1228.9854809,1200.1705989,1214.9546279,1201.5989111,1217.3176044,1246.5009074,961.8566243,
329,1186.7368421,1116.2813067,1068.1705989,1264.7586207,918.1488203,1085.5662432,1193.6950998,1073.4718693,1226.0254083,1241.5571688,1062.076225,1224.7894737,1220.2867514,1182.2050817,1206.5789474,1192.5898367,1193.784029,1178.4392015,837.3085299,
337,1177.0090744,1087.7495463,989.0998185,1246.0852995,650.6352087,938.3920145,1182.5154265,982.4882033,1221.0780399,1222.2831216,897.2540835,1202.5553539,1215.753176,1162.4537205,1189.3139746,1184.0362976,1149.2686025,1103.4900181,713.9128857,
345,1144.7495463,1039.9528131,847.6333938,1208.1161525,388.5444646,714.4555354,1158.0235935,944.8711434,1217.862069,1194.0163339,679.076225,1156.553539,1212.2540835,1140.5880218,1154.7132486,1177.2958258,1075.53902,1023.6388385,596.9165154,
353,1092.1506352,970.2704174,623.5444646,1131.9891107,174.9455535,486.1615245,1108.9981851,973.4664247,1209.0054446,1144.5426497,461.6315789,1072.2577132,1201.3666062,1109.7586207,1089.5607985,1167.6533575,949.6406534,921.8112523,525.9328494,
361,1047.1252269,938.2431942,386.0544465,989.277677,13.0417423,294.8675136,1019.6515426,1028.4573503,1182.8584392,1053.6914701,262.6116152,935.1833031,1184.6442831,1056.0580762,975.5208711,1157.1252269,747.845735,773.3738657,514.3103448,
