ID,2002,2003,2004,2005,2006,2007,2008,2009,2010,2011,2012,2013,2014,2015,2016,2017,2018,2019,2020,2021
1,,1713.005854,2189.643529,1735.56429,1242.359398,1805.190675,1006.477734,1445.803889,2002.66151,1395.906335,1769.222036,1723.24378,1697.417311,1737.704788,2357.770228,1609.992891,1402.653983,1899.992473,1839.026134,1772.572862
9,,1778.946477,2263.89609,1774.199875,1212.516203,1854.405603,822.814133,1522.976584,2039.431946,1398.292912,1767.903199,1784.942087,1649.240017,1801.793644,2374.925152,1609.040142,1396.812252,1970.295839,1850.389086,1793.821869
17,,1866.070667,2332.163914,1822.164123,1257.817269,1941.938323,753.145515,1643.443027,2084.902781,1424.517249,1774.180431,1887.51913,1599.154715,1898.478152,2408.624503,1616.435083,1406.604851,2057.735103,1889.979093,1835.430483
25,,1979.03617,2407.680117,1901.329918,1402.052478,2065.616768,826.602551,1819.201756,2141.689525,1470.486724,1790.530629,2037.551119,1557.48296,2027.540456,2476.856366,1642.289985,1442.014844,2174.882919,1974.526657,1903.432574
33,,2129.087184,2503.513903,2043.837341,1619.99101,2228.2235,1033.754756,2057.010663,2242.686389,1532.290822,1831.50575,2235.997282,1558.865147,2196.280159,2601.872883,1695.532511,1512.087811,2320.285595,2109.657119,2008.421075
41,,2324.926406,2628.524357,2281.769392,1865.314447,2418.609241,1322.818733,2359.93686,2443.976584,1611.497178,1907.991428,2477.314865,1646.693916,2408.68848,2805.602551,1785.962994,1624.025716,2503.258415,2287.966757,2155.439264
49,,2583.865984,2789.763747,2630.868702,2109.193393,2639.409994,1599.040142,2736.883546,2717.558227,1723.184612,2024.50554,2764.05875,1809.191093,2662.597324,3092.120217,1926.141125,1775.159732,2739.676772,2521.807861,2348.057077
57,,2905.973029,2981.768973,3058.249843,2354.700815,2908.155133,1836.244616,3174.623458,3029.134016,1886.932051,2189.906544,3096.864102,2016.13778,2929.706879,3441.83525,2126.147188,1950.899645,3048.668618,2818.083839,2575.15346
65,,3297.425883,3194.224127,3496.877274,2614.201129,3234.17834,2052.001045,3665.498223,3363.218482,2111.583525,2409.210955,3457.123144,2257.07213,3211.320928,3819.310056,2393.289985,2144.940205,3433.176249,3176.540038,2817.890445
73,,3745.487351,3406.417729,3828.11729,2883.842567,3611.016308,2260.530002,4181.002091,3691.222036,2394.712942,2682.134016,3828.086975,2515.118127,3505.753084,4176.218273,2713.597533,2336.583525,3873.386159,3573.179176,3044.533556
81,,4211.380932,3597.041188,4064.154715,3146.694961,4004.932678,2467.069831,4684.253816,3970.564081,2723.362534,2989.207819,4173.953377,2775.363788,3794.150742,4479.117081,3045.118963,2526.72695,4324.770019,3971.412503,
89,,4624.606732,3743.028643,4224.559272,3355.043487,4339.961949,2660.675308,5101.637675,4187.141125,3057.648129,3294.857412,4446.2281,3016.362116,4033.705624,4688.973448,3330.473552,2704.605687,4708.427765,4321.538574,
97,,4940.314865,3812.807443,4310.215973,3473.283086,4558.103492,2813.168932,5364.079866,4322.73364,3359.156596,3541.717541,4596.840895,3205.458917,4190.203011,4778.128789,3553.781518,2852.974702,4966.883546,4572.450136,
105,,5075.904871,3777.151579,4304.8848,3475.251725,4622.782145,2899.521221,5428.155342,4340.8871,3563.81706,3695.434246,4566.782981,3312.869329,4235.69308,4701.293331,3689.372151,2954.14447,5034.735313,4685.708969,
113,,5044.137989,3642.660882,4193.726741,3363.169977,4513.963412,2909.590215,5304.756011,4222.970102,3621.678654,3729.129835,4380.929333,3324.571399,4155.414175,4463.221618,3709.459753,2994.082166,4922.158687,4643.755384,
121,,4876.832114,3435.791135,3980.039097,3173.919716,4250.598996,2846.968012,5023.27765,3978.465816,3527.082166,3634.794062,4080.660673,3239.308593,3935.291867,4076.093665,3611.127535,2964.185867,4663.946895,4441.562409,
129,,4597.68179,3178.784027,3707.258624,2941.280995,3901.477106,2729.051432,4636.174786,3664.966757,3316.271169,3433.896718,3720.741794,3085.558227,3627.567217,3625.603596,3420.797826,2864.250889,4305.256534,4113.360652,
137,,4237.074639,2897.860548,3404.404767,2701.896508,3508.698307,2574.348944,4184.842986,3314.097637,3050.34079,3180.779427,3338.780263,2882.356889,3291.246289,3193.068158,3170.758938,2716.157433,3904.459962,3719.434246,
145,,3807.818106,2632.60046,3100.580598,2481.3318,3132.503868,2404.476897,3709.918043,2982.263015,2782.774409,2919.74953,2985.775873,2661.530838,2963.996655,2823.012126,2912.092202,2550.670709,3513.000836,3326.229563,
153,,3382.999373,2408.487142,2826.828559,2295.096383,2808.872883,2239.676772,3278.992682,2701.827932,2544.45829,2685.468534,2685.633285,2459.521221,2685.246916,2538.248171,2681.342045,2394.679072,3165.606314,2982.472925,
161,,3010.738031,2235.514531,2596.160778,2148.491951,2556.245034,2102.211792,2919.840059,2484.795735,2352.830859,2496.179594,2454.404558,2295.240017,2468.8871,2338.614468,2497.146979,2265.710642,2880.537738,2715.499477,
169,,2714.806816,2113.884591,2413.660464,2044.398077,2373.907798,2000.954422,2645.403722,2331.241062,2212.007945,2354.412712,2290.68618,2175.63663,2317.947104,2212.193811,2363.976375,2168.584361,2664.60945,2529.168513,
177,,2496.569308,2038.047878,2280.427347,1979.05185,2254.406649,1935.434455,2448.436337,2232.009199,2117.117709,2254.642902,2185.220364,2098.489651,2223.418566,2140.600251,2277.968848,2101.683253,2513.486306,2414.461426,
185,2011.844658,2349.852603,1997.713987,2191.084466,1944.692243,2183.178549,1898.415011,2319.201129,2172.974284,2056.346435,2189.716287,2123.680326,2053.556345,2170.634121,2105.337236,2227.059586,2058.352708,2416.285386,2352.513485,
193,2030.659837,2260.68618,1982.141961,2137.891491,1931.541292,2146.186912,1881.987874,2239.629312,2141.181476,2021.379051,2152.454945,2094.079448,2029.675936,2145.136107,2088.132971,2201.45369,2032.412503,2359.181685,2325.285386,
201,2047.634121,2212.787163,1977.848631,2108.947732,1927.676563,2129.524984,1875.420029,2193.837759,2122.245662,2001.442609,2130.325946,2084.259879,2016.228936,2132.948986,2075.937487,2187.665273,2015.64332,2326.613841,2315.012963,
209,2061.37257,2189.816642,1975.385323,2094.118545,1925.614886,2122.058332,1872.019862,2170.902781,2107.525821,1987.824378,2114.478779,2085.982647,2003.700397,2121.258624,2059.246916,2177.500941,2000.387414,2308.392641,2310.388041,
217,2067.470834,2177.684089,1968.778591,2082.466444,1918.013799,2113.724232,1866.143006,2163.807861,2090.144052,1973.348944,2095.279532,2089.414384,1984.088647,2101.040769,2034.83525,2163.052896,1979.51913,2295.36128,2299.802425,
225,2063.767928,2167.999373,1953.480243,2066.787999,1902.052687,2097.777755,1854.433619,2163.936442,2067.563036,1955.993728,2069.545474,2081.491323,1955.57119,2070.658792,2000.93456,2141.130253,1952.109346,2281.391177,2279.72465,
233,2049.655446,2153.896718,1926.319256,2042.676772,1874.47627,2069.976166,1832.092411,2161.983901,2035.774409,1933.036797,2034.90508,2053.612377,1916.536692,2030.185239,1957.743885,2106.571608,1915.429438,2260.259461,2247.87811,
241,2025.103073,2132.430483,1890.550073,2011.019862,1839.738867,2030.966757,1799.305875,2152.793435,1997.242526,1905.079657,1996.446791,2011.409785,1868.513903,1983.966548,1908.32051,2058.323019,1871.311938,2229.911144,2203.164541,
249,1990.437801,2102.008154,1849.763119,1971.578298,1799.682835,1981.69078,1754.741376,2132.814342,1952.424211,1870.085929,1956.278904,1958.012544,1813.607778,1936.419193,1854.610077,2000.266778,1822.069203,2190.439682,2144.263642,
257,1949.597742,2061.360652,1810.443655,1924.131716,1757.735522,1925.475225,1705.83065,2100.241271,1903.542756,1831.729668,1916.003763,1900.763956,1758.570144,1892.022371,1802.720677,1938.332218,1771.607568,2145.929751,2077.155551,
265,1905.654192,2015.264478,1774.088856,1869.795735,1717.984319,1862.901108,1656.875601,2054.785281,1852.848003,1791.85783,1875.51704,1844.830859,1708.369015,1857.285595,1753.892327,1873.068785,1723.745766,2100.307338,2006.872256,
273,1865.272841,1966.865356,1738.662764,1813.917834,1684.808907,1799.087602,1613.728831,2000.530211,1803.534393,1757.667364,1838.537111,1796.649801,1665.728413,1836.814761,1710.694334,1809.988292,1680.312983,2058.900481,1940.543383,
281,1832.442818,1921.588334,1699.192139,1760.574326,1662.642693,1736.815179,1576.603805,1941.420238,1758.34079,1733.240017,1805.721932,1757.641229,1632.924733,1835.698725,1674.552373,1753.176876,1641.930797,2022.73134,1881.882291,
289,1808.707506,1882.589588,1657.173531,1711.897763,1654.894418,1681.746184,1545.863684,1881.427974,1720.190466,1723.857412,1775.245871,1728.374242,1610.923061,1854.574744,1645.556973,1704.674054,1612.385532,1991.290404,1835.736985,
297,1791.012126,1858.182103,1614.96843,1669.300021,1661.852812,1638.366088,1518.250052,1828.793435,1685.96613,1730.588125,1745.924733,1706.854903,1599.500105,1889.093874,1622.647292,1665.831696,1596.06105,1960.726741,1805.831068,
305,1770.95254,1848.364207,1578.161614,1630.908008,1679.314447,1610.452227,1487.285804,1789.066904,1650.711269,1754.244407,1720.112273,1693.442818,1597.59377,1931.693916,1601.557391,1634.443446,1595.176667,1924.500523,1793.738031,
313,1739.926615,1847.472507,1550.283504,1590.056868,1696.656283,1597.635793,1450.845076,1766.608614,1611.553837,1792.387205,1698.32051,1688.824587,1605.442609,1975.857621,1587.201547,1606.853648,1606.17374,1883.166423,1792.747857,
321,1696.836922,1857.424838,1534.989964,1549.275559,1709.57119,1595.583525,1417.345181,1763.171441,1569.111018,1838.244198,1681.778591,1696.309638,1622.086975,2028.310056,1579.028016,1575.643529,1627.988083,1847.321346,1798.066067,
329,1637.922643,1881.391177,1535.318838,1508.194857,1719.434874,1592.967594,1391.605478,1783.05645,1525.359398,1861.97282,1669.406021,1714.542756,1641.452645,2085.318001,1575.455572,1537.697679,1650.016308,1821.245034,1804.322183,
337,1585.392641,1923.869538,1552.29124,1465.145306,1734.218273,1574.053314,1376.763328,1822.808907,1485.027389,1859.77211,1666.463726,1738.734058,1654.636839,2148.103701,1578.918043,1499.903617,1680.019653,1808.142379,1803.275559,
345,1573.418775,1979.621367,1586.510349,1417.371315,1753.919716,1520.452645,1374.982647,1871.80577,1452.016308,1834.674472,1671.531675,1755.902572,1665.848003,2214.934769,1586.994982,1466.241689,1722.759774,1807.147397,1793.859921,
353,1610.081748,2046.001045,1635.186703,1361.762701,1768.805143,1413.875601,1385.180431,1924.255697,1425.849467,1805.509931,1678.941041,1758.63433,1678.965294,2279.631612,1597.185239,1438.269496,1777.498641,1815.709806,1783.299394,
361,1659.533556,2115.495714,1691.460381,1297.71566,1782.301275,1234.339745,1404.473134,1966.277859,1407.255906,1782.428601,1692.232699,1736.785281,1699.776082,2327.38365,1606.841104,1416.783609,1836.441564,1828.775246,1777.273678,
