ID,2002,2003,2004,2005,2006,2007,2008,2009,2010,2011,2012,2013,2014,2015,2016,2017,2018,2019,2020,2021
1,,1958.365976,1975.336071,2438.85335,1858.206255,2116.938411,2098.573736,2509.0982,2105.462123,1914.375488,2225.443509,2341.911517,2530.701567,2341.517074,2512.421269,2498.542325,2404.344419,2553.61459,2811.265038,2719.470061
9,,2043.566824,2122.503114,2515.41162,1942.142134,2198.122562,2117.971122,2713.843564,2248.946212,2019.679463,2271.967426,2447.624923,2609.897831,2481.227537,2608.939643,2648.669541,2493.56306,2665.873811,2938.813796,2760.895504
17,,2165.880517,2310.21125,2631.718949,2092.996099,2363.296038,2140.368576,2950.221584,2461.522822,2186.122973,2325.080271,2622.738726,2732.615411,2664.81448,2728.597687,2812.611373,2652.232464,2839.855745,3116.913296,2858.474235
25,,2323.758092,2522.837063,2804.79484,2316.614179,2621.776569,2192.44084,3203.589886,2731.563402,2411.492644,2399.742079,2869.617806,2903.628276,2884.872305,2871.640526,2977.165743,2895.826114,3079.225621,3353.760829,3021.17327
33,,2510.562992,2779.000068,3046.676316,2618.670088,2968.458564,2300.051598,3482.680901,3064.989325,2675.892014,2502.03319,3165.438445,3117.141381,3148.676931,3061.726613,3151.637583,3226.348525,3366.985766,3664.276466,3255.430644
41,,2733.973996,3080.645453,3350.169917,2998.276535,3376.108123,2481.400602,3782.948197,3440.128105,2943.943133,2641.841169,3508.479915,3354.644152,3466.533634,3318.098337,3354.223021,3619.661466,3656.656402,4047.044276,3544.901047
49,,2990.147745,3406.860809,3710.606309,3425.132006,3810.768631,2743.743037,4104.072128,3825.317936,3218.628139,2835.046397,3885.660029,3642.609047,3839.032505,3653.227263,3579.068227,4033.071238,3952.247861,4477.807432,3860.817354
57,,3278.529597,3715.196537,4114.356874,3849.118388,4231.624307,3076.016082,4434.589612,4145.054951,3499.016082,3094.187778,4259.902895,3978.321152,4230.023267,4049.047287,3825.43167,4388.187846,4263.906658,4879.748854,4160.316773
65,,3585.042017,3970.332307,4517.162663,4232.469377,4625.952782,3438.498118,4753.708958,4390.799973,3774.274345,3416.812633,4612.62068,4333.290495,4606.272839,4462.879833,4098.81797,4656.583727,4571.743379,5247.932868,4448.090467
73,,3888.103606,4105.657976,4857.370971,4534.448231,4942.621707,3772.331623,5038.156436,4542.506741,4029.162116,3774.742216,4887.774037,4635.833436,4927.615274,4805.077328,4380.008965,4814.449463,4853.887429,5561.582769,4721.643126
81,,4147.366934,4104.995483,5055.380757,4690.431602,5130.264696,4052.756587,5206.596797,4582.9703,4245.044344,4095.268802,5036.452748,4849.941901,5149.616437,5027.390064,4609.417368,4860.148293,5093.677684,5798.830357,
89,,4306.583658,3973.988435,5102.706905,4673.120578,5134.328954,4258.120578,5216.998563,4502.261822,4393.822008,4322.450284,5038.101006,4958.189763,5184.119004,5092.53035,4701.665435,4806.993567,5251.23787,5897.765072,
97,,4327.30336,3729.189694,5006.024088,4490.573325,4963.439472,4349.069527,5064.083966,4297.815849,4426.785807,4416.414631,4897.325395,4942.113255,5037.776979,4979.262643,4637.774174,4657.90659,5280.852529,5839.280572,
105,,4153.977007,3411.84897,4785.901663,4173.242661,4630.653186,4279.476699,4768.592486,3997.603435,4318.958872,4364.69883,4606.117156,4783.910628,4739.532266,4709.831999,4418.178882,4409.163895,5145.203449,5613.76562,
113,,3842.213919,3046.971122,4458.184356,3779.039417,4189.491275,4039.090673,4360.584411,3634.373435,4078.636283,4172.571888,4204.683912,4487.604667,4320.128379,4324.812838,4098.216177,4068.501403,4875.886608,5242.500103,
121,,3469.484226,2721.765962,4060.054814,3350.647711,3730.345651,3697.870458,3898.70143,3270.105591,3728.167659,3890.392664,3772.770136,4111.534866,3865.769383,3910.270581,3729.884965,3715.294122,4516.456922,4781.243687,
129,,3101.666598,2481.17854,3642.116951,2964.839321,3317.072607,3318.643126,3461.144803,2953.421337,3345.180045,3553.664135,3379.025799,3720.224868,3452.158421,3522.241771,3369.644221,3410.8075,4083.798946,4287.579758,
137,,2790.619517,2345.027031,3226.964689,2653.308766,3009.319921,2973.036474,3092.91836,2718.9664,2979.650927,3228.714295,3073.241634,3360.54691,3130.234449,3218.219804,3080.981729,3195.124478,3671.326969,3842.903032,
145,,2560.925135,2303.89393,2882.754534,2443.301307,2830.799973,2701.276056,2827.186957,2581.633614,2687.727503,2968.711011,2882.544173,3083.109492,2925.11565,3029.10956,2901.576062,3086.371587,3339.249435,3501.182988,
153,,2428.735852,2324.624033,2645.145418,2332.906864,2786.918634,2527.173065,2665.209403,2534.188462,2494.739958,2792.608294,2808.344009,2914.028536,2846.420037,2968.492233,2837.262027,3079.795661,3117.603641,3290.695271,
161,,2393.589065,2369.664614,2521.966263,2308.280846,2858.5827,2449.44303,2592.282625,2558.706768,2400.872648,2710.188941,2842.784849,2861.079518,2889.674673,3022.368439,2873.890372,3149.410183,3017.927599,3219.248956,
169,,2441.496407,2410.662287,2513.979539,2348.169438,3007.929036,2452.703415,2597.859372,2636.617122,2392.600082,2711.885171,2964.477999,2921.331965,3037.255047,3154.965852,2982.549442,3252.813864,3032.318963,3272.840142,
177,,2548.17854,2447.577499,2605.022309,2431.345172,3165.464381,2519.411346,2672.372066,2761.664682,2449.649901,2772.614795,3138.395538,3072.031479,3251.871963,3329.505646,3121.994389,3347.461712,3134.596113,3418.608568,
185,2298.876754,2689.809279,2487.916034,2767.508451,2540.454527,3293.414494,2634.314241,2804.394922,2931.917881,2556.012181,2874.202833,3339.181072,3276.860056,3520.121741,3497.70622,3266.785397,3418.243413,3292.300007,3617.449805,
193,2389.272223,2828.155683,2533.950797,2959.247246,2663.300281,3386.365907,2777.222678,2961.499145,3149.732156,2700.399644,2994.773626,3539.341135,3484.127284,3816.495655,3643.314172,3401.872921,3473.581126,3492.163827,3842.032368,
201,2479.383015,2944.760419,2580.762335,3153.172312,2793.700472,3443.55389,2920.767604,3107.741395,3395.165538,2861.609184,3119.592486,3713.050777,3660.988777,4090.992336,3752.185862,3507.088004,3515.675768,3707.609799,4055.766988,
209,2576.974064,3030.574352,2621.871279,3334.097584,2917.58229,3468.383152,3041.853144,3232.765757,3638.630261,3019.655444,3238.277561,3837.918429,3787.661603,4286.558407,3817.939232,3580.965168,3530.29898,3892.235817,4235.143434,
217,2673.051461,3077.91227,2638.540341,3480.903168,3005.573051,3461.92712,3137.771642,3336.171491,3828.039554,3165.948265,3344.215014,3889.293506,3838.540478,4364.17416,3850.101553,3626.112913,3508.46924,4015.29727,4351.832273,
225,2752.566824,3090.930883,2626.418668,3564.942791,3050.202696,3424.506467,3189.871484,3418.183946,3927.031616,3285.933689,3436.095258,3851.776911,3826.63553,4338.344898,3853.00828,3644.632724,3455.398891,4071.979949,4393.425101,
233,2789.553206,3077.384521,2586.836105,3582.251352,3054.19469,3356.477452,3191.698145,3470.344625,3932.807569,3370.043523,3509.641757,3740.447684,3768.468008,4227.516526,3827.289742,3631.03709,3380.614658,4050.988161,4354.360364,
241,2778.324369,3033.870253,2527.134332,3544.332581,3007.977828,3265.810716,3144.50503,3473.028742,3859.923014,3399.066927,3553.640183,3589.991172,3672.817354,4060.80271,3755.565319,3568.46137,3296.234859,3970.082461,4246.201054,
249,2717.616574,2945.05413,2460.696093,3455.224868,2921.63293,3150.04585,3060.037843,3414.448163,3726.257784,3358.696503,3551.66304,3421.020461,3548.860535,3862.473825,3631.514816,3452.611989,3207.032505,3847.685349,4073.447547,
257,2614.917265,2813.644837,2391.292958,3318.314309,2806.151714,3013.326901,2954.508178,3297.704647,3553.019914,3266.022172,3485.075549,3263.061589,3413.452132,3654.592486,3466.600698,3295.352015,3115.406077,3700.103127,3863.806474,
265,2492.386505,2665.958325,2326.161295,3146.319989,2679.019093,2863.464518,2834.717238,3138.947786,3349.049134,3130.610689,3364.045097,3121.820434,3283.699583,3463.368165,3278.547663,3108.149045,3017.890645,3551.790187,3649.822897,
273,2364.509683,2521.027852,2267.051119,2955.470608,2556.823445,2710.132485,2702.258195,2958.366112,3120.544036,2985.124204,3211.058373,3007.269418,3171.670088,3303.877438,3069.392664,2922.938,2921.905016,3420.15233,3454.601793,
281,2244.350099,2381.660302,2209.697598,2750.164579,2443.950797,2562.236707,2557.660781,2778.290768,2899.331554,2848.870321,3037.512147,2908.848696,3079.034011,3184.071238,2875.265038,2769.301855,2829.89393,3318.305687,3289.949429,
289,2139.46575,2250.149251,2142.85554,2557.753712,2349.105728,2422.024841,2406.026073,2611.901115,2700.401902,2734.175118,2865.403203,2809.769931,2992.253541,3096.479436,2701.091562,2659.244303,2746.714638,3249.212687,3169.942175,
297,2052.991857,2134.242798,2079.374598,2396.430507,2273.112297,2289.731746,2267.909327,2470.025936,2531.901594,2636.083419,2709.750222,2709.846096,2896.006227,3023.830014,2546.828372,2597.222884,2676.813864,3206.505372,3089.561418,
305,1980.37145,2033.238144,2030.050435,2267.654144,2221.514816,2172.538151,2148.931636,2350.539451,2381.613221,2546.779032,2576.33306,2611.798262,2779.277766,2941.739752,2412.601724,2576.975091,2617.280367,3166.365907,3039.993773,
313,1918.99562,1943.499487,2006.721549,2160.374051,2192.513652,2079.522754,2051.922193,2246.685212,2245.245056,2457.263327,2464.156436,2517.216314,2643.292479,2824.427154,2303.079245,2581.685075,2563.098063,3108.541641,3014.269418,
321,1868.98255,1866.574831,2012.416821,2063.057004,2176.249162,2019.913639,1988.246288,2150.564429,2117.584343,2368.055293,2371.944365,2441.137001,2491.987819,2672.200233,2220.242045,2560.812017,2515.840621,3016.589338,2987.031205,
329,1837.300965,1808.130774,2044.782249,1967.490385,2164.143229,1991.386231,1973.870595,2071.413125,2007.817902,2288.681859,2300.380346,2398.607131,2359.987614,2529.085882,2172.575994,2510.644016,2473.405256,2902.103949,2925.806132,
337,1826.28112,1775.989393,2106.724697,1889.720249,2150.768083,1988.345514,2012.925546,2009.204133,1920.867241,2226.875659,2256.092657,2390.434271,2264.91268,2423.452816,2159.597482,2452.257921,2444.469924,2799.781907,2859.769178,
345,1839.22261,1775.19729,2196.519264,1838.53165,2126.697803,2005.518853,2101.106891,1979.079039,1865.424759,2186.728393,2245.073701,2405.634298,2214.407035,2372.456922,2185.326353,2403.414015,2432.274961,2726.467666,2804.083829,
353,1870.57661,1803.893109,2297.585301,1817.641484,2108.97687,2037.530418,2216.586396,1982.713816,1846.301649,2173.000411,2259.555601,2434.997468,2209.691644,2379.180798,2254.234928,2370.677684,2442.425922,2700.883734,2768.256895,
361,1905.332033,1870.499008,2375.39417,1820.736604,2097.026141,2074.006501,2345.734415,2022.166701,1861.393622,2188.352563,2288.252652,2475.250736,2252.792308,2430.732225,2364.158147,2367.03449,2478.10956,2730.408267,2743.017519,
