ID,2002,2003,2004,2005,2006,2007,2008,2009,2010,2011,2012,2013,2014,2015,2016,2017,2018,2019,2020,2021
1,,1240.274545,1185.609091,1519.66,1164.225455,1557.8,1133.996364,1348.863636,1362.465455,1164.561818,1325.063636,1580.76,1903.989091,1450.836364,1726.123636,1643.787273,1375.578182,1681.938182,1577.350909,1508.729091
9,,1266.572727,1187.247273,1546.554545,1149.401818,1567.565455,1063.796364,1384.289091,1361.290909,1163.490909,1313.04,1608.429091,1925.125455,1462.941818,1773.869091,1680.334545,1406.676364,1742.198182,1575.76,1514.507273
17,,1313.292727,1209.98,1584.045455,1162.365455,1618.401818,995.652727,1442.105455,1383.090909,1186.050909,1315.154545,1669.116364,1961.616364,1499.145455,1858.554545,1722.498182,1472.292727,1827.645455,1612.978182,1553.838182
25,,1376.956364,1253.452727,1639.989091,1212.923636,1714.214545,949.587273,1530.829091,1434.587273,1237.785455,1330.48,1782.34,2014.087273,1568.614545,1993.336364,1763.763636,1585.938182,1935.532727,1699.703636,1638.216364
33,,1467.738182,1326.64,1726.874545,1311.089091,1850.189091,944.318182,1660.972727,1520.318182,1321.912727,1361.683636,1957.514545,2082.749091,1685.241818,2184.787273,1830.032727,1757.383636,2078.38,1844.358182,1778.263636
41,,1594.865455,1438.203636,1845.250909,1460.189091,2010.849091,997.169091,1833.423636,1646.089091,1448.958182,1418.28,2197.896364,2168.534545,1857.16,2427.429091,1941.898182,1987.232727,2263.276364,2052.618182,1977.421818
49,,1761.485455,1596.48,1992.041818,1650.527273,2177.561818,1118.107273,2047.072727,1825.392727,1624.854545,1513.852727,2492.487273,2275.012727,2082.425455,2696.505455,2111.687273,2266.621818,2491.087273,2318.465455,2227.954545
57,,1959.818182,1798.432727,2150.485455,1879.701818,2327.894545,1310.3,2297.525455,2047.752727,1851.510909,1661.236364,2817.390909,2390.547273,2347.876364,2943.623636,2334.88,2572.770909,2758.705455,2620.456364,2503.710909
65,,2179.716364,2034.218182,2299.538182,2146.12,2434.592727,1563.56,2573.465455,2290.801818,2115.965455,1868.629091,3144.736364,2499.883636,2639.507273,3114.881818,2595.365455,2883.62,3042.249091,2936.941818,2796.730909
73,,2407.627273,2287.205455,2419.86,2425.185455,2474.263636,1851.823636,2852.796364,2519.483636,2402.316364,2125.836364,3433.054545,2604.214545,2923.185455,3196.4,2853.612727,3169.465455,3301.409091,3235.274545,3102.367273
81,,2608.061818,2524.009091,2520.578182,2684.707273,2452.507273,2142.065455,3100.830909,2715.478182,2683.247273,2401.556364,3634.005455,2705.585455,3152.836364,3172.512727,3049.785455,3397.625455,3502.887273,3470.916364,
89,,2752.263636,2717.430909,2600.678182,2864.152727,2377.783636,2388.54,3260.616364,2858.563636,2929.058182,2666.232727,3722.976364,2785.623636,3285.150909,3045.232727,3145.36,3534.416364,3616.754545,3595.98,
97,,2819.916364,2826.283636,2645.587273,2931.292727,2264.249091,2550.852727,3306.34,2927.847273,3097.750909,2876.256364,3694.045455,2824.370909,3311.06,2844.961818,3137.352727,3563.265455,3629.754545,3582.481818,
105,,2790.101818,2831.654545,2644.267273,2888.069091,2125.8,2614.554545,3232.496364,2906.998182,3162.663636,3010.743636,3545.892727,2806.714545,3239.847273,2599.703636,3034.327273,3485.665455,3541.445455,3453.834545,
113,,2667.270909,2742.016364,2588.943636,2766.410909,1976.22,2594.132727,3044.610909,2801.709091,3122.114545,3047.596364,3296.789091,2725.794545,3085.654545,2336.572727,2869.141818,3316.967273,3362.407273,3236.114545,
121,,2481.036364,2588.136364,2467.807273,2595.089091,1833.870909,2505.127273,2776.214545,2619.187273,2984.963636,2994.84,3002.870909,2586.069091,2888.169091,2084.221818,2668.6,3094.541818,3119.592727,2971.290909,
129,,2265.814545,2407.476364,2291.170909,2403.501818,1709.843636,2375.607273,2477.281818,2407.498182,2779.945455,2870.38,2710.718182,2408.285455,2679.398182,1873.9,2463.576364,2849.509091,2851.910909,2699.874545,
137,,2054.509091,2230.245455,2094.932727,2223.923636,1611.5,2233.772727,2192.054545,2202.694545,2554.814545,2699.158182,2465.789091,2233.530909,2491.136364,1728.850909,2290.603636,2614.107273,2597.3,2457.818182,
145,,1872.907273,2091.969091,1909.925455,2084.58,1557.463636,2109.936364,1954.872727,2041.250909,2359.076364,2510.812727,2298.765455,2095.42,2348.323636,1668.76,2177.718182,2424.283636,2388.587273,2268.881818,
153,,1744.867273,2016.978182,1769.438182,2009.747273,1567.756364,2033.567273,1788.092727,1944.8,2223.092727,2346.974545,2224.710909,2026.349091,2271.974545,1702.576364,2138.641818,2306.34,2256.441818,2153.123636,
161,,1685.845455,2019.656364,1690.947273,2014.476364,1651.852727,2021.574545,1705.450909,1926.596364,2164.841818,2236.509091,2249.001818,2043.454545,2274.072727,1828.732727,2175.432727,2270.581818,2214.06,2125.427273,
169,,1702.407273,2103.552727,1683.869091,2104.149091,1802.487273,2081.330909,1710.027273,1990.145455,2188.581818,2199.750909,2362.36,2151.105455,2356.149091,2034.485455,2281.229091,2314.849091,2260.990909,2196.198182,
177,,1795.267273,2258.696364,1761.527273,2271.76,1999.618182,2209.4,1799.869091,2126.161818,2292.356364,2245.870909,2548.416364,2338.696364,2510.189091,2294.24,2441.161818,2431.201818,2393.587273,2366.927273,
185,1988.078182,1959.92,2463.323636,1923.14,2499.530909,2231.087273,2387.729091,1968.894545,2319.287273,2465.212727,2371.265455,2783.436364,2579.694545,2719.694545,2573.138182,2638.127273,2606.896364,2601.210909,2623.063636,
193,2262.396364,2185.138182,2686.010909,2154.576364,2752.647273,2483.74,2595.165455,2201.8,2543.103636,2683.721818,2561.903636,3037.521818,2848.761818,2955.492727,2846.478182,2851.18,2821.856364,2865.952727,2942.185455,
201,2527.125455,2444.861818,2894.36,2432.132727,3004.82,2729.107273,2800.701818,2475.825455,2770.465455,2917.647273,2789.434545,3266.192727,3116.398182,3190.176364,3091.281818,3057.285455,3049.610909,3160.776364,3283.594545,
209,2766.290909,2696.594545,3062.832727,2719.190909,3225.309091,2929.82,2992.130909,2759.063636,2973.387273,3124.961818,3024.3,3450.101818,3351.712727,3387.081818,3283.932727,3232.503636,3254.410909,3448.429091,3611.7,
217,2955.854545,2889.603636,3167.24,2982.703636,3385.067273,3066.725455,3145.209091,3020.256364,3131.321818,3279.674545,3233.363636,3577.314545,3525.472727,3531.558182,3409.961818,3362.570909,3409.658182,3689.609091,3883.216364,
225,3080.123636,3013.783636,3195.754545,3182.067273,3466.585455,3125.583636,3242.009091,3228.225455,3222.923636,3359.063636,3378.950909,3635.24,3626.783636,3615.254545,3461.409091,3434.505455,3498.578182,3855.409091,4066.187273,
233,3127.796364,3074.554545,3147.214545,3295.883636,3463.023636,3107.905455,3268.009091,3361.290909,3240.174545,3363.378182,3446.827273,3624.554545,3655.472727,3633.263636,3435.98,3442.107273,3514.767273,3935.363636,4146.696364,
241,3087.836364,3072.834545,3032.638182,3319.058182,3381.454545,3022.650909,3216.452727,3406.038182,3181.187273,3302.329091,3436.127273,3544.756364,3615.687273,3583.192727,3338.88,3381.510909,3456.270909,3930.865455,4123.518182,
249,2970.496364,3014.394545,2860.149091,3260.425455,3235.272727,2882.34,3095.110909,3367.443636,3055.376364,3184.347273,3354.923636,3399.792727,3519.567273,3471.12,3185.792727,3263.569091,3335.049091,3852.76,4009.932727,
257,2795.261818,2902.030909,2644.872727,3135.241818,3044.774545,2699.732727,2920.776364,3258.396364,2881.578182,3018.463636,3207.769091,3203.696364,3375.398182,3312.765455,2991.956364,3093.82,3165.26,3711.56,3822.090909,
265,2591.421818,2743.698182,2420.016364,2959.141818,2831.176364,2490.274545,2718.892727,3095.156364,2678.28,2813.565455,3009.454545,2979.129091,3191.0,3125.254545,2772.750909,2884.163636,2963.88,3524.227273,3578.974545,
273,2378.218182,2559.063636,2202.22,2750.967273,2611.612727,2276.072727,2508.007273,2893.821818,2465.543636,2592.3,2776.809091,2744.914545,2974.8,2924.354545,2547.436364,2654.145455,2746.172727,3309.34,3298.249091,
281,2172.103636,2367.096364,2000.094545,2527.330909,2407.929091,2074.238182,2300.541818,2666.596364,2258.312727,2378.307273,2532.703636,2520.352727,2740.269091,2717.141818,2337.881818,2429.738182,2524.932727,3083.167273,2996.276364,
289,1981.581818,2181.043636,1827.198182,2303.485455,2232.383636,1893.898182,2100.2,2427.76,2067.989091,2185.103636,2295.807273,2320.847273,2494.281818,2512.358182,2152.521818,2224.798182,2314.450909,2861.494545,2691.767273,
297,1813.887273,2005.507273,1686.543636,2088.918182,2089.258182,1740.583636,1910.090909,2194.130909,1897.874545,2018.474545,2080.116364,2158.303636,2253.570909,2309.894545,1999.898182,2047.949091,2121.436364,2651.803636,2408.787273,
305,1668.389091,1846.350909,1578.987273,1891.872727,1974.738182,1612.801818,1738.892727,1981.418182,1750.345455,1877.218182,1893.6,2036.494545,2027.847273,2107.130909,1882.469091,1900.438182,1954.030909,2457.267273,2161.925455,
313,1548.110909,1704.652727,1502.725455,1720.474545,1878.961818,1510.867273,1597.283636,1801.134545,1623.410909,1757.505455,1748.367273,1955.543636,1836.483636,1927.745455,1795.430909,1776.383636,1817.436364,2272.052727,1961.390909,
321,1450.096364,1580.069091,1455.449091,1579.96,1793.049091,1431.874545,1489.658182,1655.058182,1510.465455,1652.367273,1646.581818,1909.983636,1687.569091,1790.654545,1729.721818,1666.58,1718.358182,2097.954545,1809.752727,
329,1373.114545,1471.054545,1433.996364,1465.776364,1725.178182,1369.207273,1416.043636,1545.634545,1411.176364,1563.565455,1583.64,1891.567273,1582.250909,1702.816364,1676.634545,1569.918182,1655.310909,1945.038182,1705.227273,
337,1314.841818,1378.130909,1433.887273,1375.189091,1673.129091,1317.878182,1370.18,1471.645455,1326.987273,1491.092727,1554.4,1889.610909,1515.207273,1660.183636,1635.385455,1489.045455,1623.729091,1822.554545,1639.425455,
345,1272.127273,1301.976364,1447.096364,1303.02,1635.596364,1275.214545,1343.010909,1425.338182,1262.323636,1433.04,1548.18,1889.48,1478.745455,1653.134545,1610.547273,1428.256364,1614.596364,1727.947273,1597.943636,
353,1245.850909,1244.461818,1469.176364,1244.84,1606.436364,1236.96,1331.681818,1397.978182,1216.309091,1386.283636,1554.689091,1889.770909,1462.123636,1669.976364,1605.112727,1387.532727,1620.714545,1657.276364,1569.458182,
361,1234.738182,1205.12,1493.963636,1197.674545,1576.650909,1191.789091,1333.129091,1376.914545,1183.365455,1350.28,1565.805455,1893.007273,1454.46,1694.823636,1617.843636,1369.461818,1641.938182,1606.705455,1545.472727,
