ID,2002,2003,2004,2005,2006,2007,2008,2009,2010,2011,2012,2013,2014,2015,2016,2017,2018,2019,2020,2021
1,,771.902518,850.173842,910.743298,930.82697,841.745735,856.176279,896.878148,1010.363932,973.116166,948.394801,1020.21121,1134.804224,1084.207961,1036.743298,1099.969131,1070.917953,1073.96182,1161.846466,1148.067425
9,,737.833469,828.617384,899.303818,925.956133,844.372055,809.389115,887.052803,999.656377,963.859464,936.29082,1011.310317,1134.642567,1083.58814,1028.529651,1080.857839,1070.147035,1078.030869,1133.539399,1135.992689
17,,714.584078,786.880585,889.47766,921.87896,847.839155,771.561332,882.623071,986.336312,946.713241,919.969131,1012.023558,1129.174655,1079.112916,1048.251828,1044.624695,1074.609261,1085.770106,1113.85459,1128.820471
25,,711.357433,758.185215,873.645816,913.054427,846.400487,742.921202,880.613323,965.621446,910.504468,893.405361,1018.750609,1119.949634,1071.845654,1093.122665,1001.309504,1084.050366,1096.363932,1115.005686,1130.742486
33,,717.685621,747.460601,851.586515,891.748985,844.720552,722.24208,883.623883,936.13485,869.127539,864.997563,1022.683997,1113.62632,1057.395613,1155.063363,963.985378,1098.02437,1097.535337,1129.628757,1141.336312
41,,727.006499,764.551584,826.74736,883.424045,842.814785,706.367181,898.109667,904.532088,834.831844,839.839155,1030.861901,1111.235581,1029.843217,1226.517465,943.680747,1116.26645,1070.9342,1145.701056,1156.385865
49,,739.604387,807.725426,809.154346,890.822096,845.50853,718.819659,916.4013,884.634444,798.213647,816.826158,1053.269699,1114.340374,996.685621,1294.784728,943.891145,1131.431357,1044.511779,1168.513404,1173.89277
57,,769.363932,850.797725,802.371243,905.471974,857.618197,758.270512,913.18684,854.123477,776.884647,818.523964,1072.418359,1116.264825,979.950447,1325.670999,959.128351,1140.073924,1047.352559,1207.806661,1188.495532
65,,819.812348,892.391552,801.221771,922.959383,882.679935,817.372868,916.372055,828.709992,775.763607,845.054427,1100.61576,1116.521527,991.14541,1349.311129,1002.917953,1159.155158,1083.947197,1259.334687,1201.129163
73,,875.800162,928.259139,787.04143,938.704305,905.444354,882.187652,946.319253,820.014622,801.476848,883.502843,1133.238018,1109.195776,1028.988627,1372.490658,1058.606011,1184.121852,1145.907392,1304.071487,1210.957758
81,,912.170593,959.423233,771.39805,953.073924,922.977254,950.45329,994.69537,833.316003,848.881397,913.844842,1159.470349,1106.750609,1079.002437,1385.07961,1090.778229,1213.085297,1188.051178,1331.29407,
89,,921.918765,985.8684,765.527214,963.8684,923.829407,1003.604387,1019.036556,861.861089,907.394801,941.81316,1186.794476,1121.070674,1130.913079,1365.002437,1088.273761,1239.549959,1221.658002,1337.724614,
97,,929.489846,1006.9342,790.302193,980.499594,892.205524,1034.61576,1032.627132,908.470349,970.895207,982.233956,1219.688058,1148.036556,1182.896832,1332.575142,1084.52234,1257.146223,1253.497157,1325.783916,
105,,914.835906,1020.844842,839.95857,992.504468,853.859464,1048.056864,1040.263201,971.089358,1035.01381,1037.848903,1234.189277,1191.220959,1209.402924,1311.311129,1096.044679,1261.614947,1266.187652,1295.905768,
113,,898.490658,1026.519903,902.277011,1005.15922,834.247766,1058.931763,1032.964257,1035.544273,1098.792039,1089.779041,1245.454915,1230.692933,1223.984565,1303.034931,1128.539399,1254.636068,1258.54671,1269.941511,
121,,893.952884,1023.064988,960.233144,1013.850528,841.147035,1067.42567,1000.094232,1090.623071,1145.059301,1123.655565,1256.064988,1266.757108,1243.48091,1307.818034,1168.160845,1243.108042,1268.068237,1265.536962,
129,,899.25589,1017.216897,1003.900081,1017.447604,872.483347,1069.988627,978.801787,1122.759545,1176.926076,1150.570268,1263.811535,1288.697807,1256.338749,1312.912266,1196.668562,1229.629569,1300.155158,1287.361495,
137,,905.575955,1010.937449,1022.272949,1015.65069,910.285134,1069.170593,982.974005,1133.472786,1201.010561,1173.818846,1267.690496,1295.233956,1261.908205,1314.13485,1219.71974,1211.354996,1336.488221,1324.364744,
145,,912.38424,1004.683997,1034.506905,1011.25589,948.940699,1066.203087,1008.420796,1145.333063,1218.766856,1191.272136,1272.308692,1294.913891,1267.697807,1312.156783,1242.767669,1193.556458,1357.25589,1364.593014,
153,,921.208773,997.472786,1049.168156,1005.746548,981.867587,1059.523152,1037.380179,1157.127539,1229.540211,1208.826158,1269.659626,1293.38749,1271.274574,1305.413485,1259.704305,1177.221771,1370.087734,1396.602762,
161,,932.138911,990.308692,1065.974817,1000.346872,1008.96182,1051.220146,1064.549147,1168.006499,1233.981316,1227.987815,1264.394801,1293.364744,1271.352559,1295.323314,1271.045491,1161.572705,1376.173842,1419.341998,
169,,939.847279,982.660439,1079.965881,995.443542,1027.684809,1042.289196,1086.303006,1174.850528,1231.193339,1241.48091,1256.748985,1288.84078,1268.01381,1284.907392,1274.869212,1147.769293,1370.983753,1432.945573,
177,,946.132413,975.372055,1089.216897,991.333063,1040.569456,1033.336312,1104.085297,1178.498781,1225.30463,1242.819659,1248.724614,1282.641755,1263.49147,1275.258327,1275.066613,1133.992689,1362.337937,1439.284322,
185,876.192526,949.459789,967.875711,1093.011373,986.742486,1047.839968,1023.991064,1117.900894,1176.701056,1218.10723,1237.926076,1239.062551,1273.463038,1257.528838,1265.141348,1272.235581,1121.531275,1353.269699,1437.099106,
193,880.021933,950.554021,961.054427,1092.458164,981.853777,1054.393989,1016.156783,1129.43948,1172.184403,1210.572705,1230.732738,1229.127539,1264.122665,1251.73355,1254.745735,1268.497969,1110.166531,1343.605199,1433.30788,
201,882.884647,951.01381,952.70593,1088.562145,976.171405,1059.329813,1009.497157,1136.770918,1167.10723,1201.233956,1222.060926,1217.530463,1254.112916,1246.048741,1245.662063,1263.298944,1100.320065,1333.705118,1427.649066,
209,884.680747,951.366369,944.913079,1083.443542,971.223396,1062.236393,1002.857839,1140.732738,1162.557271,1192.017059,1214.287571,1206.503656,1244.766044,1240.706742,1238.279448,1256.879773,1092.445979,1322.558083,1420.430544,
217,884.636881,950.919578,936.383428,1078.001625,967.129976,1060.890333,993.978067,1141.449228,1155.175467,1181.372868,1204.727864,1195.905768,1233.009748,1232.717303,1232.21121,1250.774167,1086.060114,1311.999188,1412.991064,
225,883.118603,949.84078,929.389115,1073.21121,962.496344,1058.57108,984.927701,1139.884647,1146.969131,1171.817222,1195.264825,1187.475223,1221.329813,1223.350934,1225.537774,1245.151097,1079.982941,1302.797725,1405.011373,
233,881.478473,946.97563,922.263201,1066.623883,956.416734,1054.187652,975.413485,1135.541836,1137.298132,1162.710804,1183.783103,1178.163282,1208.953696,1212.175467,1217.751422,1239.058489,1074.69537,1294.023558,1394.333063,
241,880.961007,944.113729,915.805037,1058.732738,950.641755,1048.181154,965.684809,1130.086921,1127.170593,1155.711617,1173.190902,1169.051178,1196.753046,1201.86515,1208.848903,1231.306255,1069.103981,1285.655565,1379.835093,
249,879.395613,939.270512,909.077985,1050.057677,944.833469,1039.333063,955.468725,1122.952884,1116.075548,1148.708367,1162.85459,1159.935825,1185.433794,1190.090983,1198.302193,1222.841592,1063.875711,1277.994314,1363.60195,
257,877.347685,932.899269,903.562145,1041.02762,939.423233,1029.26645,946.260764,1115.661251,1105.366369,1142.618197,1153.410236,1151.614135,1173.832656,1178.467912,1188.249391,1212.722177,1058.205524,1269.78879,1347.42892,
265,875.233956,925.275386,897.404549,1031.713241,934.585703,1018.98619,938.489846,1108.022746,1093.393176,1136.714866,1143.095045,1144.861901,1161.590577,1167.583266,1178.184403,1202.701868,1053.178716,1261.570268,1331.157595,
273,873.601137,917.73355,892.302193,1022.96182,930.118603,1009.512591,932.506093,1100.10723,1082.430544,1132.004874,1134.917953,1140.220959,1150.181154,1157.948822,1168.445167,1194.402112,1048.262388,1253.221771,1317.908205,
281,873.129163,911.915516,887.640942,1014.125914,925.057677,1000.800162,928.337124,1092.320877,1072.209586,1126.084484,1128.241267,1136.940699,1140.160032,1147.625508,1159.933387,1187.750609,1046.014622,1246.627945,1307.925264,
289,874.856214,907.424858,885.631194,1005.938262,919.871649,993.704305,926.672624,1084.976442,1063.857027,1116.567019,1125.493907,1133.188465,1131.601137,1133.536962,1151.755483,1181.193339,1046.714054,1241.537774,1301.673436,
297,877.467912,903.575955,885.449228,996.233956,914.818846,987.130788,926.488221,1077.370431,1055.42892,1105.025995,1124.85134,1129.558895,1123.481722,1112.782291,1144.533712,1175.369618,1050.125102,1238.196588,1297.65394,
305,877.731925,899.640942,886.948822,985.198213,907.226645,979.610885,927.361495,1070.137287,1047.113729,1092.078798,1123.843217,1126.877335,1113.475223,1079.70918,1138.532088,1168.870837,1052.885459,1234.042242,1293.790414,
313,874.111292,893.539399,890.329813,973.623071,891.808286,971.042242,929.781478,1064.456539,1037.206336,1075.386677,1118.8026,1122.735175,1101.943948,1047.886271,1133.34606,1161.156783,1053.371243,1227.991064,1285.60195,
321,870.676686,885.134037,895.454915,965.166531,873.368806,960.962632,932.711617,1057.912266,1025.806661,1053.567831,1111.294882,1116.042242,1089.227457,1026.57433,1128.784728,1149.669374,1052.190089,1217.805037,1271.721365,
329,868.863526,879.602762,902.904955,956.963444,856.474411,950.532088,935.157595,1050.315191,1012.426483,1027.090171,1101.575142,1108.377742,1081.05199,1021.251015,1123.281885,1136.176279,1049.743298,1204.65069,1253.692933,
337,867.707555,874.372868,912.564582,949.641755,847.591389,937.444354,932.566206,1039.901706,1000.605199,1002.666125,1088.281885,1104.454102,1076.831032,1030.344435,1116.4671,1118.804224,1049.878148,1197.327376,1232.251828,
345,864.402112,868.826158,921.380991,944.597076,844.030869,923.351747,923.419171,1032.438668,991.575955,985.258327,1071.890333,1106.874898,1077.991064,1047.430544,1111.269699,1102.312754,1054.688058,1195.341186,1207.621446,
353,845.006499,865.532088,926.357433,940.935825,842.45329,907.665313,915.495532,1028.380991,985.745735,971.624695,1053.458164,1115.313566,1082.22827,1062.698619,1108.894395,1088.393176,1062.565394,1190.554021,1179.759545,
361,808.30463,861.134037,921.638505,936.25264,840.763607,886.831844,907.880585,1020.883834,980.193339,960.072299,1035.086109,1125.780666,1084.352559,1059.39805,1107.694557,1077.513404,1069.331438,1181.553209,1150.640942,
