ID,2002,2003,2004,2005,2006,2007,2008,2009,2010,2011,2012,2013,2014,2015,2016,2017,2018,2019,2020,2021
1,,1422.102792,2073.866117,1803.139594,1160.041244,1636.948604,935.38198,1295.302665,1542.880711,955.313452,1537.579315,1437.045685,1215.086929,1494.841371,1795.465736,1495.185279,1110.613579,1451.25698,1229.232868,1346.392132
9,,1490.375635,2122.727792,1815.024746,1239.766497,1663.911802,838.688452,1408.778553,1586.015228,987.117386,1480.945431,1502.961929,1215.41434,1558.234772,1831.308376,1532.055203,1142.980964,1515.836294,1267.002538,1366.321066
17,,1571.80203,2165.108503,1823.760152,1372.955584,1716.673858,810.517132,1544.085025,1652.596447,1029.928934,1416.734137,1602.860406,1210.746827,1635.253173,1877.111041,1557.718909,1201.005711,1590.453046,1322.003807,1398.182741
25,,1674.222716,2200.942259,1840.852157,1552.463832,1800.03934,870.095178,1700.093909,1743.98731,1090.152284,1367.710025,1735.483503,1206.626904,1730.180838,1933.048858,1567.922589,1289.528553,1678.484137,1395.03236,1454.003173
33,,1804.258883,2237.616117,1888.569797,1755.249365,1909.549492,1018.352792,1870.398477,1873.753807,1169.560914,1380.055838,1887.216371,1258.670685,1846.643401,1997.782995,1606.093909,1406.871193,1779.936548,1482.554569,1544.030457
41,,1962.539975,2272.640863,1989.220178,1945.964467,2037.361041,1236.938452,2037.745558,2047.388325,1264.134518,1468.484772,2043.371193,1400.036168,1980.055838,2066.524746,1680.621827,1544.07868,1891.117386,1581.067893,1670.833756
49,,2140.505076,2296.241751,2141.952411,2100.589467,2182.485406,1478.546954,2194.350888,2246.740482,1365.265863,1608.57297,2195.872462,1619.632614,2113.087563,2134.312183,1769.64467,1684.73033,2005.737944,1688.793147,1830.608503
57,,2328.432741,2293.814721,2313.875,2195.322335,2338.537437,1690.517766,2328.805838,2417.482868,1456.246193,1771.460025,2325.82868,1861.649112,2226.321701,2188.911802,1868.605964,1807.942259,2116.602792,1794.516497,2009.975888
65,,2515.696701,2267.384518,2482.829315,2240.438452,2490.123731,1814.135152,2425.176396,2544.82297,1535.987944,1948.010152,2418.070431,2092.708122,2320.244289,2222.830584,1969.083122,1895.399112,2215.351523,1891.200508,2194.712563
73,,2685.209391,2220.21066,2614.619924,2238.84264,2608.546954,1862.280457,2487.856599,2618.128173,1598.274112,2120.781091,2452.67703,2265.778553,2387.416244,2220.761421,2056.44099,1937.648477,2284.027919,1974.309645,2379.086929
81,,2812.802665,2153.752538,2671.65165,2190.430838,2669.283629,1861.076142,2520.571066,2632.715736,1633.79632,2268.73731,2429.056472,2369.31599,2416.317893,2188.956853,2116.850888,1931.418147,2313.828046,2036.994289,
89,,2863.519036,2070.621193,2647.460025,2104.25698,2645.674492,1830.877538,2523.033629,2593.55901,1633.635152,2366.003807,2356.704949,2410.246193,2386.983503,2126.945431,2133.704315,1887.01967,2301.695431,2071.894036,
97,,2827.923223,1981.572335,2557.675127,1993.733503,2549.28934,1776.776015,2486.833122,2507.464467,1601.258883,2402.828046,2246.125,2396.012056,2305.442259,2036.984137,2109.616117,1825.988579,2248.659898,2077.621193,
105,,2717.082487,1885.25,2433.515228,1873.535533,2408.55901,1698.347716,2415.757614,2388.950508,1551.045685,2389.573604,2111.720812,2331.548223,2172.257614,1925.517132,2044.679569,1757.161168,2162.729061,2055.395305,
113,,2556.593909,1787.160533,2289.097716,1753.061548,2246.270939,1606.25698,2315.225254,2251.800761,1490.534898,2335.586294,1959.861041,2226.360406,2013.439721,1806.858503,1952.777284,1688.261421,2056.431472,2007.720812,
121,,2376.197335,1696.425127,2141.23731,1637.295051,2084.659264,1514.573604,2189.163706,2119.654188,1424.994924,2248.204949,1810.614848,2094.695431,1854.485406,1693.261421,1844.866751,1621.968274,1944.744289,1941.456218,
129,,2194.421954,1618.310279,1999.957487,1534.171954,1938.572335,1432.137056,2049.784264,2007.250635,1357.990482,2136.141497,1678.550127,1955.475888,1708.726523,1589.053934,1735.678299,1562.696701,1841.711294,1867.125635,
137,,2024.15736,1550.715102,1874.661802,1446.818528,1820.031091,1361.753807,1912.241117,1922.358503,1297.887056,2007.020305,1571.593909,1825.676396,1585.437183,1501.745558,1635.589467,1512.893401,1755.227792,1792.567893,
145,,1867.468909,1491.885152,1767.467005,1383.520939,1728.976523,1307.647208,1788.696701,1869.230964,1248.503807,1875.646574,1493.777284,1712.585025,1490.376904,1432.175761,1554.452411,1475.842005,1685.305203,1724.145939,
153,,1728.65165,1447.360406,1676.087563,1346.380711,1656.840102,1272.98731,1685.743655,1847.886421,1212.88769,1755.016497,1443.130711,1615.01967,1423.148477,1384.309645,1497.348985,1455.220812,1633.925127,1671.168782,
161,,1614.012056,1419.640228,1593.646574,1334.36802,1604.149746,1260.553299,1602.637056,1848.463832,1194.26967,1654.340102,1421.17703,1534.641497,1381.199239,1358.144036,1465.991117,1449.708122,1600.731599,1639.64467,
169,,1524.217005,1410.711294,1517.338198,1344.178934,1572.675127,1269.38198,1535.370558,1853.501269,1192.510787,1574.574873,1424.98731,1473.112944,1363.654822,1353.087563,1460.193528,1456.40165,1586.53934,1630.407995,
177,,1461.987944,1420.989848,1448.288071,1369.253173,1559.036802,1297.274746,1478.912437,1841.73731,1205.599619,1517.364213,1448.167513,1433.368655,1365.616751,1364.812817,1474.487944,1474.94797,1591.666878,1642.071066,
185,1209.192893,1426.975254,1447.207487,1396.73033,1401.571701,1556.471447,1339.406091,1432.640863,1779.962563,1229.498096,1482.772208,1483.526015,1415.672589,1380.477157,1388.241751,1497.616117,1502.568528,1612.364848,1671.770939,
193,1257.701142,1415.522208,1477.734772,1367.031726,1438.885787,1563.326142,1386.234137,1399.357868,1700.015863,1258.48731,1471.239848,1522.186548,1415.51269,1400.725254,1413.853426,1523.246827,1534.678934,1642.484772,1712.428299,
201,1305.90165,1421.785533,1498.457487,1356.473985,1475.21764,1573.747462,1429.246193,1381.409898,1622.486041,1286.197335,1477.666878,1556.291244,1426.53236,1414.23731,1435.96066,1547.458756,1565.047589,1672.517132,1753.64467,
209,1349.734772,1436.946066,1508.56599,1359.930203,1501.373731,1581.490482,1461.550127,1378.198604,1555.024112,1309.366751,1492.845178,1577.283629,1441.972716,1416.333756,1447.743655,1566.65736,1587.423223,1693.799492,1786.751269,
217,1383.378173,1456.678934,1509.07297,1370.86231,1512.760787,1580.347716,1477.746193,1384.465736,1495.895939,1322.345812,1507.092005,1577.019036,1453.127538,1407.124365,1448.709391,1576.088832,1597.287437,1700.383249,1805.136421,
225,1399.746193,1475.307741,1500.812817,1380.237944,1508.863579,1565.289975,1470.857868,1390.510152,1438.821701,1324.679569,1513.979695,1556.222716,1454.807741,1388.44099,1438.579315,1575.269036,1591.070431,1689.651015,1807.903553,
233,1397.409898,1488.569162,1484.849619,1378.959391,1488.734772,1534.304569,1446.411802,1389.935279,1384.049492,1316.020939,1505.714467,1519.795685,1444.03236,1360.130076,1418.100888,1564.121193,1567.829949,1663.138959,1794.55203,
241,1379.561548,1494.098985,1463.527919,1365.842005,1457.795685,1490.165609,1411.15736,1379.375635,1333.692893,1296.970812,1480.579315,1473.615482,1421.119924,1327.33566,1388.758883,1541.411168,1531.847081,1625.770305,1769.109772,
249,1353.016497,1490.350888,1438.44099,1342.728426,1421.272843,1438.727792,1370.591371,1362.850888,1287.001904,1273.604695,1440.794416,1421.229061,1388.529822,1294.520939,1353.277284,1508.429569,1487.791878,1581.572335,1737.315355,
257,1321.586929,1481.510152,1411.754442,1313.99302,1386.720812,1385.70368,1329.395939,1341.874365,1245.578046,1253.045685,1395.906091,1369.699873,1351.103426,1268.673858,1316.067893,1465.999365,1441.947335,1536.156091,1702.21066,
265,1289.269036,1471.486675,1387.246827,1282.312183,1360.918782,1335.567893,1292.225888,1317.78236,1206.606599,1243.392132,1354.793147,1322.350888,1315.187183,1256.317893,1282.608503,1414.779188,1399.071701,1495.727157,1663.334391,
273,1256.672589,1460.826777,1366.045685,1251.223985,1346.722716,1289.997462,1260.014594,1295.018401,1170.63198,1249.456218,1323.681472,1283.157995,1285.041244,1262.498731,1255.406091,1361.097716,1360.571066,1462.295685,1619.071066,
281,1227.26269,1448.660533,1349.892132,1222.315355,1348.093274,1251.791244,1232.494924,1279.095178,1136.989213,1273.137056,1306.486675,1253.577411,1262.220812,1289.388959,1235.013959,1310.756345,1329.13769,1433.122462,1564.437817,
289,1199.068528,1441.201777,1339.176396,1197.202411,1365.418147,1220.375,1207.638959,1273.985406,1106.204949,1315.473985,1303.183376,1231.619924,1247.027919,1332.867386,1219.171954,1266.185914,1305.564721,1406.045051,1508.78236,
297,1175.004442,1446.378173,1335.47335,1177.019036,1396.887056,1198.064721,1184.981599,1281.154188,1076.930203,1373.109137,1311.962563,1213.231599,1240.319797,1394.833122,1206.490482,1229.736675,1289.270939,1379.066624,1459.121827,
305,1155.305203,1469.232234,1343.884518,1160.662437,1439.204949,1185.621827,1162.131345,1299.265228,1046.554569,1444.449873,1326.93401,1194.622462,1242.468274,1468.860406,1196.581853,1202.297589,1280.40736,1349.419416,1419.032995,
313,1140.18401,1515.180203,1368.416878,1145.574873,1485.323604,1184.541878,1135.75698,1328.811548,1014.09835,1523.458756,1344.484137,1180.507614,1252.716371,1544.142766,1188.794416,1182.229061,1277.207487,1316.740482,1389.935914,
321,1129.808376,1585.206853,1411.66434,1133.95368,1520.600888,1195.775381,1109.193528,1369.552665,981.965102,1594.808376,1361.982868,1176.140228,1270.666244,1603.628807,1191.983503,1164.854061,1278.16434,1284.848985,1366.088832,
329,1132.576142,1676.069162,1473.548858,1124.659264,1551.503807,1214.533629,1091.13769,1414.550127,954.78934,1630.873096,1371.596447,1183.638959,1295.163706,1644.816624,1215.173858,1147.833122,1282.731599,1256.338198,1347.669416,
337,1157.787437,1776.454315,1552.595812,1115.510787,1584.036168,1227.46066,1088.121193,1455.689721,934.906726,1639.786802,1376.918147,1198.78236,1319.47335,1676.380076,1258.126269,1128.363579,1293.041878,1232.01967,1338.895305,
345,1215.400381,1866.999365,1642.058376,1109.265863,1607.443528,1218.479695,1106.468274,1482.621193,924.489213,1631.837563,1385.145305,1214.479695,1349.857868,1702.807741,1315.719543,1110.132614,1313.167513,1213.591371,1338.261421,
353,1286.76967,1950.033629,1718.88198,1111.090736,1621.145305,1168.920051,1148.038071,1501.680838,924.68401,1612.350254,1394.670685,1223.202411,1390.005711,1731.516497,1380.553299,1097.694162,1346.814086,1204.753807,1333.160533,
361,1358.895305,2019.039975,1773.083756,1124.263959,1626.794416,1060.568528,1210.663071,1518.024746,935.329949,1583.245558,1406.557741,1218.992386,1439.435279,1761.731599,1443.5,1096.310914,1393.454315,1208.653553,1325.356599,
