ID,2002,2003,2004,2005,2006,2007,2008,2009,2010,2011,2012,2013,2014,2015,2016,2017,2018,2019,2020,2021
1,,1461.256237,1453.620364,1359.404585,1346.372218,1588.420769,1488.909643,1597.945381,1355.855698,1387.440324,1576.933918,1438.04383,1571.161834,1497.373567,1780.744437,1657.665543,1506.827377,1638.630479,1943.969656,1780.748483
9,,1491.365475,1517.551585,1395.118004,1376.607552,1636.812542,1476.625759,1673.846258,1397.372893,1416.860418,1560.470668,1461.652057,1591.745786,1528.840189,1814.602832,1709.594066,1549.141605,1677.404585,1994.598112,1803.428186
17,,1541.608227,1579.137559,1453.002023,1432.333109,1712.612947,1465.765341,1738.83884,1458.900877,1466.496966,1545.878624,1508.739717,1629.714767,1583.668914,1871.133513,1761.678355,1618.521241,1726.434255,2058.424815,1837.595415
25,,1610.0971,1643.962239,1535.625084,1522.405934,1820.352664,1466.683749,1813.081591,1541.667566,1541.44909,1543.466622,1585.396494,1686.662171,1663.709373,1956.344572,1820.275118,1723.998651,1788.356035,2135.261632,1892.468645
33,,1698.249494,1725.479434,1644.737694,1649.540121,1959.318948,1489.901551,1906.660148,1654.182063,1637.494268,1561.768038,1694.49764,1767.254214,1773.983142,2073.718139,1895.666891,1872.395819,1871.846932,2236.765341,1971.750506
41,,1807.358732,1827.057316,1776.103169,1812.977748,2123.758597,1544.621713,2029.788941,1803.056642,1745.884019,1607.215779,1841.347269,1871.987862,1920.213756,2221.451787,1995.517195,2062.265678,1977.220499,2367.749831,2073.127444
49,,1938.191504,1940.512475,1927.219825,2002.120027,2311.141605,1639.597438,2185.322994,1984.256912,1871.553608,1690.311531,2023.4147,2006.193527,2096.219825,2378.20971,2115.737694,2275.466622,2108.596089,2529.053945,2193.364801
57,,2090.055968,2052.286581,2092.329063,2197.993257,2507.076871,1776.095078,2368.629804,2172.643965,2020.484828,1815.116655,2227.585974,2163.451113,2282.717465,2493.84356,2248.600135,2488.049899,2270.642616,2707.666891,2327.633176
65,,2252.856372,2143.66352,2248.05327,2385.314902,2691.062711,1946.909643,2561.772758,2347.351315,2195.340526,1977.099123,2437.144976,2340.422117,2468.962239,2595.551585,2379.565071,2679.871881,2453.528658,2903.943358,2471.600809
73,,2406.900877,2202.37087,2397.37559,2543.639245,2829.191504,2134.271746,2747.002023,2488.867161,2381.262306,2162.015509,2613.826703,2512.069454,2636.734997,2680.619016,2492.267026,2840.254214,2639.394471,3107.681726,2613.987188
81,,2519.857047,2214.792987,2518.459204,2646.289278,2897.849629,2317.864464,2883.565745,2575.402562,2549.213082,2342.935941,2733.285233,2655.776804,2761.84356,2750.894808,2572.699258,2952.046527,2814.733648,3291.589346,
89,,2571.564396,2184.720836,2603.848281,2672.158463,2869.308833,2467.171949,2940.125421,2591.937964,2672.454484,2485.064734,2784.07822,2762.639919,2811.759946,2786.280512,2602.494943,2992.319622,2960.865813,3407.173297,
97,,2557.797707,2112.033041,2645.621038,2625.16116,2760.018206,2537.109912,2921.103844,2528.842886,2706.505732,2569.033715,2760.950775,2815.064059,2780.260283,2761.904248,2570.618341,2961.994606,3065.892785,3429.99056,
105,,2466.898179,1999.46797,2627.809845,2505.251517,2592.071477,2499.068105,2821.089009,2399.929872,2650.405934,2578.537424,2661.109238,2798.126096,2664.761969,2663.726231,2475.204316,2859.700607,3094.820634,3348.359407,
113,,2314.826028,1853.066082,2545.174646,2332.070802,2388.840863,2383.753877,2647.202967,2214.817937,2519.790964,2502.992583,2496.207013,2717.081591,2480.077546,2509.371544,2329.399191,2701.368173,3030.115307,3180.95145,
121,,2130.233985,1700.830074,2407.139582,2129.082266,2184.856372,2224.168577,2424.440324,2015.884693,2339.188806,2367.37559,2296.708024,2588.263655,2267.860418,2331.236008,2155.080243,2511.735671,2888.197572,2956.374916,
129,,1935.308833,1560.525287,2242.277815,1924.601483,2003.393122,2048.731625,2195.625759,1833.374241,2138.124747,2194.461902,2098.726231,2420.686446,2061.422117,2149.960216,1976.123399,2310.339177,2684.699258,2710.640593,
137,,1759.250169,1448.762643,2069.972353,1742.854349,1863.597438,1889.890088,1988.169252,1686.604181,1943.681052,2017.053945,1930.95145,2241.064059,1889.319622,1986.120701,1823.542144,2117.762643,2466.460553,2492.13149,
145,,1619.120701,1372.013486,1916.389076,1604.446392,1771.844235,1768.615644,1822.096426,1586.539447,1786.407957,1863.023601,1810.91234,2079.306136,1769.921106,1864.310856,1718.637222,1965.279838,2275.440324,2327.273769,
153,,1529.161834,1331.273095,1802.763318,1519.993257,1741.134187,1699.366824,1708.376939,1539.566419,1683.333783,1747.238705,1750.78085,1956.91234,1719.04855,1803.881996,1673.191504,1872.118004,2134.209036,2230.568442,
161,,1495.426837,1325.192178,1738.919757,1497.022252,1775.356035,1686.407283,1647.169252,1545.391099,1641.358732,1677.085637,1756.647336,1886.250169,1745.873904,1811.347269,1693.583951,1846.213082,2056.641268,2206.699933,
169,,1518.393122,1355.535401,1732.554282,1539.441672,1867.140256,1729.262306,1642.393122,1607.658125,1663.627107,1655.07822,1830.102495,1877.225893,1851.668914,1884.685772,1781.09238,1886.942009,2047.32704,2257.930546,
177,,1594.915711,1421.308833,1786.268375,1644.713419,1998.50236,1824.194875,1696.120027,1725.917734,1751.407283,1683.150371,1967.298045,1931.548887,2028.427512,2012.057316,1927.875253,1987.398517,2106.187458,2376.944032,
185,1596.103844,1715.80445,1518.916386,1892.118678,1802.569791,2151.273095,1963.622387,1804.881996,1895.002023,1894.662171,1763.232637,2157.220499,2039.451113,2259.289278,2173.15644,2112.847606,2138.787593,2226.481457,2542.305462,
193,1678.812542,1861.824005,1642.545516,2027.691841,1996.066757,2307.769386,2122.955496,1956.978422,2106.36143,2081.147674,1885.550236,2377.61969,2178.002023,2511.326365,2346.646662,2310.574511,2322.689818,2395.567768,2731.329737,
201,1768.140931,2015.726905,1776.416723,2173.277815,2201.613621,2445.893459,2274.981794,2131.765341,2335.844235,2285.006743,2044.032367,2592.126096,2330.380984,2738.838166,2507.507755,2482.853001,2498.96089,2579.330411,2920.991234,
209,1862.690492,2154.317599,1904.871207,2307.818611,2380.141605,2545.87795,2403.904248,2301.206339,2553.275118,2468.277815,2223.29737,2760.457181,2473.562374,2875.513149,2630.188132,2600.342549,2631.815914,2733.560351,3092.728928,
217,1945.94673,2262.844909,2002.606878,2413.687795,2495.622387,2594.797033,2491.819285,2441.049899,2718.900877,2608.959541,2396.881322,2833.846932,2576.006743,2876.362104,2670.796359,2655.853675,2695.119353,2834.944032,3220.548887,
225,2002.13149,2323.933918,2054.211059,2473.331086,2529.209036,2580.987188,2503.515172,2527.466622,2795.71207,2683.473365,2531.525287,2812.211059,2618.879973,2760.338503,2624.022927,2653.099798,2687.104518,2870.50236,3286.060688,
233,2024.520566,2330.899528,2044.923803,2471.797033,2479.520566,2500.132165,2455.79973,2544.477411,2770.235334,2681.793661,2610.056642,2706.271072,2598.293324,2578.333783,2524.734997,2597.101146,2616.79029,2835.801753,3270.021578,
241,2008.831423,2280.40526,1982.867161,2406.155091,2363.961564,2361.67768,2362.484828,2480.679029,2650.418746,2606.476736,2619.87323,2548.126096,2513.872556,2373.547539,2391.98584,2493.229265,2503.163183,2743.320971,3168.660823,
249,1956.98584,2184.477411,1888.337829,2291.410654,2205.01416,2191.228591,2234.908294,2343.632502,2473.96561,2471.657451,2558.662171,2359.096426,2382.786244,2176.240054,2241.496291,2357.693864,2364.738368,2608.229939,2990.480782,
257,1876.911666,2053.400539,1778.281187,2146.343223,2029.910317,2012.349966,2086.222522,2166.329063,2276.681052,2300.768038,2441.953473,2168.797033,2228.74646,2001.739717,2086.474713,2199.447741,2215.384356,2448.163183,2767.296696,
265,1779.654754,1899.019555,1666.649359,1992.498989,1862.538773,1841.596763,1934.033041,1978.731625,2081.348618,2122.794336,2290.656777,1994.517869,2076.149697,1858.59002,1934.877276,2030.6588,2065.99528,2287.056642,2526.365475,
273,1677.773432,1745.482131,1561.437626,1843.958867,1721.91706,1693.530007,1788.587323,1799.098449,1900.430209,1960.273095,2128.908294,1851.836817,1939.026972,1753.407283,1784.391773,1870.981794,1923.246797,2142.75118,2297.295347,
281,1579.539447,1608.422117,1467.635199,1707.383007,1613.395819,1575.187458,1656.852326,1643.260283,1749.175995,1823.728254,1967.549562,1743.096426,1827.337829,1683.966959,1654.127444,1733.70735,1798.188806,2027.523264,2096.675657,
289,1494.291976,1493.836817,1390.405934,1591.421443,1537.74174,1485.544167,1545.436278,1517.412677,1630.552259,1723.060013,1820.517195,1663.637222,1740.285907,1646.670937,1551.141605,1627.482131,1702.019555,1944.933243,1938.242751,
297,1427.739717,1404.703978,1332.094403,1498.024949,1489.616993,1423.393796,1458.521241,1422.849629,1540.668914,1658.101146,1696.155091,1605.004046,1670.354012,1635.258935,1477.236008,1554.29737,1635.374241,1891.692515,1824.202293,
305,1382.070802,1339.558328,1292.367498,1425.625759,1467.408631,1385.94673,1395.171949,1354.399865,1475.454484,1621.905597,1598.342549,1559.395145,1607.532704,1642.296022,1430.229939,1510.820634,1593.128119,1858.792313,1751.431558,
313,1357.395819,1295.46797,1269.959541,1371.865813,1464.879299,1370.007417,1353.321645,1309.867161,1429.383007,1603.587997,1526.3412,1524.247471,1557.777478,1657.551585,1407.862441,1490.568442,1565.734997,1843.086986,1713.600135,
321,1351.941335,1267.928523,1262.480782,1335.252192,1470.861092,1373.901551,1330.21443,1285.474039,1395.538098,1596.377613,1476.055293,1504.240054,1523.261632,1677.615644,1404.993257,1482.033715,1549.810519,1835.043156,1698.635873,
329,1364.012138,1256.981794,1267.38503,1313.546864,1481.724208,1393.575185,1328.400539,1278.364127,1371.789616,1593.929872,1443.240728,1499.736345,1506.519892,1697.30209,1418.479434,1477.91234,1543.490897,1831.550236,1695.861767,
337,1386.969656,1265.099798,1281.245448,1305.524612,1494.450438,1420.650034,1348.595415,1282.727579,1358.107889,1592.812542,1425.430209,1505.989211,1501.134862,1707.749831,1446.260283,1475.730951,1547.395145,1833.858395,1705.005394,
345,1410.879973,1293.47269,1300.667566,1308.002023,1512.917734,1450.469319,1391.730276,1293.777478,1355.565745,1592.862441,1419.91234,1520.032367,1501.217127,1719.974376,1486.890762,1473.695212,1560.315577,1842.578557,1722.374241,
353,1430.598112,1337.574511,1320.761295,1318.226568,1536.138233,1476.9265,1452.979771,1309.975725,1361.752529,1593.844235,1422.058665,1538.623736,1492.929872,1739.01416,1539.552259,1474.879299,1581.236008,1863.066082,1742.338503,
361,1444.82468,1393.032367,1337.698584,1331.240728,1559.351989,1491.809845,1523.52731,1329.831423,1371.837492,1590.405934,1428.421443,1555.727579,1488.742414,1759.258935,1600.236008,1483.764666,1606.569117,1898.022927,1760.208361,
