ID,2002,2003,2004,2005,2006,2007,2008,2009,2010,2011,2012,2013,2014,2015,2016,2017,2018,2019,2020,2021
1,,1404.382353,750.764706,1413.676471,1161.352941,616.235294,751.352941,691.235294,1312.382353,1268.705882,1155.176471,660.176471,1552.323529,1693.029412,1671.147059,1117.294118,1504.676471,1273.529412,1276.529412,1596.088235
9,,1354.176471,737.117647,1294.882353,1083.588235,716.147059,633.382353,495.352941,1282.176471,1195.058824,897.441176,558.705882,1436.235294,1674.735294,1656.5,979.882353,1476.823529,1126.088235,1122.558824,1600.205882
17,,1299.529412,772.264706,1194.411765,1042.941176,873.176471,585.970588,353.588235,1250.294118,1116.5,659.352941,524.323529,1314.088235,1648.0,1658.470588,887.088235,1456.794118,1002.470588,1058.235294,1613.235294
25,,1253.676471,849.5,1107.558824,1068.588235,1055.029412,617.323529,285.705882,1228.764706,1048.558824,476.941176,561.705882,1189.882353,1602.941176,1679.941176,874.617647,1452.088235,893.852941,1093.588235,1640.441176
33,,1231.588235,964.823529,1056.117647,1156.470588,1235.558824,723.558824,299.352941,1230.470588,1012.176471,373.058824,670.117647,1116.352941,1520.352941,1718.382353,958.352941,1481.205882,825.352941,1224.264706,1684.029412
41,,1241.941176,1123.441176,1084.147059,1293.235294,1407.088235,888.147059,402.176471,1283.647059,1041.029412,359.382353,843.088235,1130.088235,1432.470588,1786.323529,1133.176471,1563.323529,832.088235,1427.911765,1744.676471
49,,1295.205882,1304.705882,1204.205882,1461.794118,1552.205882,1079.323529,588.323529,1385.088235,1145.588235,439.470588,1058.882353,1242.0,1381.323529,1882.382353,1365.352941,1701.088235,934.294118,1669.617647,1818.647059
57,,1400.294118,1494.411765,1398.5,1642.970588,1682.117647,1262.794118,837.441176,1527.352941,1313.588235,608.647059,1308.911765,1430.617647,1409.029412,2011.352941,1600.823529,1878.970588,1134.911765,1924.147059,1896.911765
65,,1547.382353,1694.352941,1621.147059,1829.382353,1782.852941,1439.764706,1112.117647,1711.882353,1507.941176,853.676471,1567.823529,1662.794118,1535.147059,2176.882353,1822.235294,2076.882353,1417.617647,2189.470588,1983.382353
73,,1736.882353,1902.647059,1852.5,2019.441176,1881.588235,1618.882353,1403.911765,1933.970588,1719.705882,1152.911765,1825.941176,1904.117647,1740.088235,2371.235294,2023.558824,2301.117647,1752.117647,2455.941176,2075.735294
81,,1949.617647,2116.529412,2051.323529,2200.676471,1995.852941,1802.529412,1696.411765,2177.205882,1942.647059,1483.5,2075.147059,2133.470588,1985.5,2583.823529,2217.411765,2548.352941,2105.823529,2722.382353,
89,,2177.029412,2329.852941,2227.088235,2361.029412,2127.617647,1992.470588,1985.911765,2426.882353,2165.617647,1821.529412,2302.911765,2357.264706,2239.470588,2798.0,2394.264706,2809.323529,2463.647059,2980.441176,
97,,2398.441176,2528.294118,2402.235294,2494.705882,2268.705882,2182.382353,2265.735294,2662.264706,2381.029412,2145.647059,2501.029412,2570.088235,2477.617647,2989.588235,2556.941176,3065.588235,2806.441176,3213.441176,
105,,2594.470588,2686.264706,2580.088235,2594.264706,2402.647059,2355.264706,2528.264706,2861.764706,2570.735294,2431.911765,2657.058824,2763.117647,2680.264706,3126.735294,2705.617647,3294.558824,3099.823529,3387.029412,
113,,2746.411765,2791.970588,2753.794118,2663.647059,2517.147059,2499.235294,2750.205882,3009.117647,2729.617647,2645.117647,2763.323529,2934.735294,2829.764706,3204.852941,2837.176471,3471.588235,3333.147059,3514.382353,
121,,2838.735294,2839.764706,2902.176471,2702.235294,2602.617647,2601.529412,2927.676471,3102.676471,2846.823529,2788.676471,2820.441176,3071.588235,2912.117647,3231.441176,2944.235294,3576.970588,3499.117647,3595.470588,
129,,2873.441176,2833.794118,3003.088235,2716.823529,2658.088235,2657.735294,3045.882353,3142.558824,2910.411765,2866.676471,2833.617647,3146.147059,2914.235294,3212.235294,3018.852941,3590.264706,3583.441176,3630.352941,
137,,2852.147059,2786.382353,3039.529412,2712.176471,2671.117647,2667.294118,3106.676471,3138.029412,2917.117647,2889.205882,2814.411765,3149.676471,2866.088235,3155.852941,3053.058824,3523.411765,3588.911765,3613.323529,
145,,2795.529412,2712.823529,3009.0,2688.882353,2632.323529,2638.323529,3101.352941,3103.058824,2870.029412,2869.794118,2780.147059,3105.882353,2791.705882,3078.147059,3057.735294,3403.588235,3521.735294,3548.029412,
153,,2719.235294,2618.617647,2927.617647,2642.294118,2564.970588,2588.0,3042.794118,3050.294118,2793.588235,2815.235294,2738.147059,3031.823529,2711.382353,2997.294118,3025.5,3257.558824,3399.441176,3455.294118,
161,,2638.970588,2528.852941,2803.323529,2573.617647,2490.911765,2526.382353,2940.941176,2994.352941,2701.941176,2737.705882,2701.882353,2939.882353,2641.294118,2927.441176,2967.882353,3114.029412,3259.911765,3355.764706,
169,,2559.911765,2459.558824,2668.970588,2500.352941,2429.411765,2461.676471,2823.882353,2946.176471,2606.382353,2647.323529,2671.294118,2845.823529,2589.529412,2874.882353,2900.676471,2985.794118,3132.294118,3257.235294,
177,,2487.529412,2413.764706,2546.911765,2433.529412,2389.705882,2400.382353,2706.852941,2895.5,2521.294118,2566.529412,2639.323529,2767.470588,2563.294118,2840.529412,2844.0,2877.970588,3033.411765,3167.676471,
185,2175.882353,2428.941176,2389.029412,2447.382353,2373.294118,2370.323529,2352.794118,2593.117647,2807.705882,2455.676471,2509.058824,2612.294118,2703.117647,2561.352941,2819.558824,2804.205882,2792.441176,2973.411765,3093.764706,
193,2208.441176,2387.323529,2376.970588,2383.5,2326.176471,2365.764706,2325.852941,2501.676471,2724.382353,2413.558824,2479.764706,2594.088235,2657.205882,2584.735294,2802.0,2783.0,2731.617647,2948.441176,3043.911765,
201,2238.676471,2358.382353,2374.117647,2353.882353,2291.441176,2369.235294,2318.0,2436.588235,2657.352941,2393.647059,2476.823529,2582.0,2632.558824,2623.764706,2785.647059,2783.294118,2686.323529,2951.029412,3023.470588,
209,2267.617647,2338.705882,2370.411765,2353.382353,2268.911765,2371.705882,2324.264706,2402.941176,2608.411765,2392.529412,2499.0,2574.323529,2628.970588,2667.823529,2768.441176,2802.411765,2660.264706,2968.529412,3025.558824,
217,2289.235294,2326.705882,2356.176471,2369.088235,2254.911765,2362.411765,2335.5,2396.176471,2570.470588,2404.235294,2534.617647,2566.764706,2636.794118,2703.470588,2746.882353,2828.588235,2653.970588,2994.558824,3035.294118,
225,2295.058824,2319.382353,2337.117647,2389.147059,2244.411765,2343.058824,2345.911765,2402.735294,2533.676471,2416.0,2570.382353,2553.5,2639.205882,2722.588235,2716.794118,2845.911765,2659.0,3010.764706,3030.529412,
233,2276.558824,2311.176471,2311.5,2401.676471,2228.5,2309.676471,2346.205882,2412.441176,2495.911765,2417.852941,2590.676471,2522.382353,2634.264706,2714.088235,2676.529412,2833.294118,2663.676471,3005.0,3009.852941,
241,2241.176471,2296.235294,2272.117647,2396.882353,2199.0,2248.147059,2317.823529,2417.147059,2455.735294,2407.294118,2591.382353,2482.705882,2614.029412,2675.735294,2626.735294,2792.617647,2663.529412,2972.794118,2973.235294,
249,2188.705882,2270.176471,2217.911765,2367.5,2158.852941,2167.647059,2264.735294,2400.088235,2406.0,2380.382353,2571.735294,2438.352941,2574.088235,2612.147059,2561.558824,2731.676471,2646.911765,2920.558824,2912.794118,
257,2119.205882,2230.529412,2146.970588,2311.323529,2112.5,2073.705882,2196.029412,2361.147059,2341.764706,2339.0,2526.676471,2389.088235,2520.588235,2535.941176,2490.558824,2651.676471,2610.117647,2852.088235,2836.029412,
265,2037.911765,2176.0,2067.058824,2233.764706,2057.235294,1973.117647,2117.294118,2302.617647,2257.676471,2282.617647,2450.235294,2339.205882,2460.970588,2457.676471,2417.0,2550.411765,2548.058824,2774.764706,2740.705882,
273,1953.882353,2103.411765,1989.735294,2143.823529,1993.911765,1870.352941,2031.323529,2221.735294,2160.382353,2223.647059,2357.647059,2292.147059,2399.647059,2380.470588,2341.882353,2443.441176,2461.147059,2694.0,2637.588235,
281,1875.352941,2023.676471,1921.794118,2045.558824,1922.911765,1775.617647,1943.0,2119.235294,2054.088235,2172.558824,2252.617647,2251.764706,2337.941176,2303.147059,2269.647059,2336.823529,2366.264706,2611.058824,2530.352941,
289,1803.852941,1940.382353,1864.970588,1941.529412,1846.205882,1693.617647,1856.558824,2001.264706,1950.294118,2131.794118,2141.117647,2219.852941,2274.617647,2228.147059,2197.705882,2230.676471,2270.382353,2531.764706,2414.411765,
297,1738.5,1858.676471,1823.558824,1838.852941,1760.029412,1624.794118,1774.911765,1875.058824,1853.823529,2095.911765,2028.705882,2192.676471,2202.941176,2157.264706,2122.617647,2125.558824,2179.352941,2459.352941,2299.147059,
305,1682.676471,1777.235294,1799.882353,1741.764706,1656.911765,1566.382353,1698.264706,1747.5,1768.029412,2058.852941,1919.235294,2162.941176,2120.676471,2088.088235,2044.088235,2024.470588,2095.0,2393.735294,2189.941176,
313,1636.647059,1687.764706,1791.794118,1649.470588,1522.117647,1516.441176,1624.911765,1624.176471,1691.735294,2011.0,1808.558824,2123.617647,2031.029412,2019.382353,1964.441176,1928.147059,2022.0,2331.088235,2082.029412,
321,1598.882353,1582.558824,1792.5,1563.352941,1347.794118,1467.323529,1554.382353,1516.470588,1624.411765,1950.705882,1695.176471,2079.323529,1944.088235,1950.558824,1883.0,1836.882353,1957.382353,2262.823529,1968.529412,
329,1566.294118,1457.176471,1789.911765,1482.823529,1142.470588,1409.088235,1478.911765,1432.205882,1563.5,1877.941176,1569.264706,2030.5,1865.294118,1887.294118,1799.088235,1751.588235,1893.970588,2176.852941,1863.264706,
337,1538.294118,1307.470588,1775.117647,1413.147059,928.294118,1329.058824,1386.470588,1383.764706,1507.470588,1790.794118,1419.441176,1972.0,1799.970588,1833.911765,1705.647059,1678.676471,1821.970588,2066.647059,1769.352941,
345,1510.794118,1140.176471,1737.764706,1353.5,744.088235,1217.558824,1265.176471,1364.205882,1451.882353,1683.970588,1232.264706,1892.058824,1752.705882,1786.382353,1588.764706,1623.441176,1727.323529,1917.911765,1691.823529,
353,1479.176471,965.264706,1665.617647,1296.823529,624.529412,1072.705882,1106.176471,1350.558824,1395.647059,1551.029412,1024.058824,1788.558824,1723.088235,1740.882353,1448.235294,1577.235294,1599.882353,1719.647059,1633.382353,
361,1446.176471,828.970588,1545.235294,1234.176471,583.176471,910.235294,908.0,1336.0,1334.823529,1377.970588,821.411765,1673.0,1706.0,1700.264706,1285.852941,1536.588235,1441.147059,1493.735294,1598.882353,
